Data from palm_cartel_v_Reflection_00002.txt Node
Date: Fri Feb 11 16:24:58 ART 2022
User: Nati
Spectrometer: USB2E3644
Trigger mode: 4
Integration Time (sec): 4,100000E-2
Scans to average: 10
Electric dark correction enabled: true
Nonlinearity correction enabled: false
Boxcar width: 10
XAxis mode: Wavelengths
Number of Pixels in Spectrum: 2048
>>>>>Begin Spectral Data<<<<<
178,315	-78,29
178,696	-15,85
179,076	-8,49
179,457	22,83
179,838	45,79
180,218	20,66
180,599	40,51
180,979	142,86
181,36	98,19
181,74	97,32
182,121	70,8
182,501	57,66
182,881	50
183,262	50
183,642	41,18
184,022	7,78
184,402	-10,56
184,783	26,98
185,163	39,57
185,543	35,27
185,923	20,97
186,303	12,93
186,683	11,9
187,063	10,85
187,443	12,4
187,823	13,32
188,203	12,59
188,583	21,46
188,963	18,56
189,343	-1,25
189,723	-8,79
190,102	-2
190,482	5,92
190,862	1,68
191,242	-0,5
191,621	5,18
192,001	14,06
192,38	20
192,76	11,65
193,14	12,41
193,519	20,66
193,898	27,19
194,278	35,16
194,657	39,55
195,037	45,38
195,416	56,64
195,795	55,23
196,175	45,62
196,554	39,93
196,933	44,81
197,312	50,48
197,692	56,58
198,071	57,12
198,45	52,91
198,829	47,18
199,208	44,46
199,587	35,83
199,966	37,91
200,345	40,02
200,724	36,8
201,103	33,07
201,482	33,94
201,86	34,4
202,239	35,1
202,618	36,44
202,997	33,65
203,375	28,22
203,754	28,76
204,133	32,46
204,511	34,97
204,89	31,7
205,269	27,09
205,647	23,76
206,026	17,9
206,404	18,88
206,782	29,45
207,161	35,48
207,539	39,46
207,918	39,02
208,296	35,93
208,674	37,59
209,052	39,35
209,431	38,06
209,809	36,23
210,187	32,78
210,565	32,87
210,943	34,44
211,321	36,39
211,699	39,37
212,077	38,24
212,455	35,12
212,833	36,2
213,211	40,77
213,589	43,76
213,967	44,93
214,345	45,04
214,722	38,8
215,1	37,53
215,478	36,49
215,855	35,41
216,233	35,85
216,611	38,12
216,988	41,6
217,366	43,36
217,743	45,8
218,121	51,67
218,498	53,19
218,876	51,4
219,253	51,64
219,631	53,58
220,008	57,73
220,385	64,54
220,762	67,29
221,14	61,94
221,517	60,27
221,894	63,32
222,271	62,99
222,648	58,03
223,025	54,23
223,402	53,2
223,78	49,22
224,157	50
224,533	44,6
224,91	38,3
225,287	40,9
225,664	39,31
226,041	32,35
226,418	29,62
226,795	30,43
227,171	26,62
227,548	25,38
227,925	26,57
228,301	23,32
228,678	20,63
229,055	25,7
229,431	28,92
229,808	31,77
230,184	31,02
230,561	31,96
230,937	31,95
231,313	34,02
231,69	37,53
232,066	37,6
232,442	45,14
232,819	52,26
233,195	51,37
233,571	49,7
233,947	45,52
234,323	39,96
234,699	41,19
235,075	41,87
235,451	37,9
235,827	36,19
236,203	36,14
236,579	36,84
236,955	36,89
237,331	34,99
237,707	30,56
238,083	29,85
238,459	31,41
238,834	31,23
239,21	29,76
239,586	29,05
239,961	26,96
240,337	23,88
240,713	20,73
241,088	17,02
241,464	15,49
241,839	18,24
242,215	21,38
242,59	21,22
242,965	22,48
243,341	22,09
243,716	20,04
244,091	17,79
244,467	16,54
244,842	16,1
245,217	15,49
245,592	16,23
245,967	16,1
246,343	14,99
246,718	13,82
247,093	13,57
247,468	12,41
247,843	12,95
248,218	12,11
248,593	11,62
248,967	13,04
249,342	13,84
249,717	14,58
250,092	14,22
250,467	13,36
250,841	11,63
251,216	11,61
251,591	11,29
251,965	11,22
252,34	10,72
252,714	10,03
253,089	11,15
253,463	11,36
253,838	11,63
254,212	11,01
254,587	10,49
254,961	9,88
255,335	10,44
255,71	9,85
256,084	10,87
256,458	12,3
256,832	12,52
257,206	12,64
257,581	12,74
257,955	12,62
258,329	12,65
258,703	12,62
259,077	12,38
259,451	12,09
259,825	12,24
260,199	12,68
260,572	13,2
260,946	13,39
261,32	13,41
261,694	12,78
262,068	12,94
262,441	13,48
262,815	13,96
263,189	14,16
263,562	14,43
263,936	14,96
264,309	15,04
264,683	14,66
265,056	14,27
265,43	13,84
265,803	13,88
266,176	14,5
266,55	15,16
266,923	15,28
267,296	16,16
267,67	16,35
268,043	16,18
268,416	16,02
268,789	15,44
269,162	15,35
269,535	15,69
269,908	16,05
270,281	15,61
270,654	15,51
271,027	15,45
271,4	15,18
271,773	14,43
272,146	13,8
272,519	14,14
272,891	15,07
273,264	15,51
273,637	15,73
274,01	15,24
274,382	14,75
274,755	14,79
275,127	13,93
275,5	13,42
275,872	13,17
276,245	12,98
276,617	13,11
276,99	13,25
277,362	13,45
277,734	13,28
278,107	14,04
278,479	13,98
278,851	13,55
279,223	13,57
279,596	13,62
279,968	14,03
280,34	14,15
280,712	13,5
281,084	12,65
281,456	11,73
281,828	11,76
282,2	12,07
282,572	11,8
282,944	11,9
283,315	12,29
283,687	12,63
284,059	12,72
284,431	12,74
284,802	12,6
285,174	12,8
285,546	13,14
285,917	12,98
286,289	12,4
286,66	12,44
287,032	12,41
287,403	12,47
287,775	12,39
288,146	12,11
288,518	12,27
288,889	12,32
289,26	12,69
289,632	12,67
290,003	12,98
290,374	13,16
290,745	13,25
291,116	13,21
291,487	12,81
291,858	12,31
292,229	11,94
292,6	11,74
292,971	11,35
293,342	10,83
293,713	10,44
294,084	10,8
294,455	10,72
294,826	10,49
295,196	9,94
295,567	9,48
295,938	9,34
296,308	8,92
296,679	8,7
297,05	8,66
297,42	8,71
297,791	8,33
298,161	8,11
298,532	8,19
298,902	8,41
299,272	9,09
299,643	9,72
300,013	10,19
300,383	10,31
300,754	10,27
301,124	10,23
301,494	10,32
301,864	10,25
302,234	10,42
302,604	10,66
302,974	11,03
303,344	11,35
303,714	11,75
304,084	11,99
304,454	12,33
304,824	12,25
305,194	12,08
305,563	12,18
305,933	12,05
306,303	12,1
306,673	11,9
307,042	11,5
307,412	11,15
307,781	10,67
308,151	10,37
308,521	10,42
308,89	10,59
309,259	10,72
309,629	11,02
309,998	10,9
310,368	10,78
310,737	10,81
311,106	10,95
311,475	10,94
311,845	11
312,214	11,1
312,583	11,23
312,952	11,31
313,321	11,22
313,69	11,65
314,059	11,73
314,428	11,53
314,797	10,94
315,166	10,79
315,535	11,04
315,904	11,2
316,272	11,23
316,641	11,29
317,01	11,37
317,379	11,25
317,747	11,37
318,116	11,59
318,484	11,56
318,853	11,63
319,221	11,63
319,59	11,43
319,958	11,14
320,327	11,14
320,695	11,43
321,063	11,63
321,432	11,59
321,8	11,59
322,168	11,67
322,536	12,21
322,905	12,45
323,273	12,35
323,641	12,25
324,009	12,2
324,377	12
324,745	11,87
325,113	11,58
325,481	11,51
325,849	11,36
326,216	11,26
326,584	11,09
326,952	11
327,32	11,09
327,687	11,04
328,055	11,09
328,423	10,97
328,79	10,81
329,158	10,78
329,525	10,68
329,893	10,59
330,26	10,5
330,628	10,56
330,995	10,48
331,362	10,48
331,73	10,43
332,097	10,35
332,464	10,39
332,831	10,62
333,199	10,7
333,566	10,84
333,933	11
334,3	10,94
334,667	10,7
335,034	10,54
335,401	10,57
335,768	10,46
336,135	10,32
336,502	10,22
336,868	10,1
337,235	10,07
337,602	10,19
337,969	10,21
338,335	10,16
338,702	10,14
339,069	10,05
339,435	10,21
339,802	10,38
340,168	10,28
340,535	10,17
340,901	10,11
341,267	9,95
341,634	9,82
342	9,93
342,366	10,08
342,733	10,16
343,099	10,27
343,465	10,21
343,831	10,3
344,197	10,4
344,563	10,39
344,929	10,38
345,295	10,33
345,661	10,31
346,027	10,3
346,393	10,38
346,759	10,43
347,125	10,34
347,491	10,28
347,856	10,3
348,222	10,39
348,588	10,33
348,953	10,39
349,319	10,48
349,684	10,44
350,05	10,37
350,415	10,4
350,781	10,3
351,146	10,33
351,512	10,15
351,877	9,96
352,242	9,97
352,608	9,98
352,973	9,98
353,338	9,98
353,703	9,98
354,068	9,92
354,433	9,86
354,798	9,9
355,164	9,97
355,528	9,95
355,893	9,96
356,258	10,05
356,623	10,03
356,988	9,99
357,353	9,85
357,718	9,77
358,082	9,7
358,447	9,7
358,812	9,67
359,176	9,7
359,541	9,78
359,905	9,76
360,27	9,72
360,634	9,63
360,999	9,58
361,363	9,6
361,728	9,58
362,092	9,61
362,456	9,52
362,821	9,42
363,185	9,41
363,549	9,28
363,913	9,23
364,277	9,17
364,641	9,15
365,005	9,23
365,369	9,3
365,733	9,34
366,097	9,4
366,461	9,44
366,825	9,39
367,189	9,38
367,553	9,31
367,916	9,3
368,28	9,35
368,644	9,27
369,007	9,13
369,371	9,13
369,734	9,16
370,098	9,22
370,461	9,24
370,825	9,27
371,188	9,34
371,552	9,34
371,915	9,4
372,278	9,45
372,642	9,46
373,005	9,47
373,368	9,45
373,731	9,41
374,094	9,41
374,457	9,5
374,82	9,55
375,183	9,61
375,546	9,67
375,909	9,72
376,272	9,73
376,635	9,68
376,998	9,64
377,361	9,63
377,723	9,59
378,086	9,56
378,449	9,58
378,811	9,56
379,174	9,48
379,537	9,42
379,899	9,43
380,262	9,46
380,624	9,42
380,987	9,42
381,349	9,38
381,711	9,33
382,074	9,27
382,436	9,17
382,798	9,17
383,16	9,06
383,522	9
383,884	9,06
384,247	9,11
384,609	9,11
384,971	9,11
385,333	9,09
385,695	9,11
386,056	9,08
386,418	9,12
386,78	9,17
387,142	9,25
387,504	9,21
387,865	9,17
388,227	9,19
388,589	9,14
388,95	9,09
389,312	9,05
389,673	9,05
390,035	9,07
390,396	9,03
390,758	9,1
391,119	9,14
391,48	9,12
391,842	9,14
392,203	9,15
392,564	9,12
392,925	9,06
393,286	9,01
393,648	9,01
394,009	8,97
394,37	8,94
394,731	8,88
395,092	8,86
395,452	8,82
395,813	8,78
396,174	8,8
396,535	8,84
396,896	8,89
397,257	8,9
397,617	8,89
397,978	8,89
398,338	8,82
398,699	8,79
399,06	8,8
399,42	8,86
399,781	8,93
400,141	8,94
400,501	9
400,862	9,03
401,222	9,01
401,582	8,99
401,943	9,01
402,303	9,01
402,663	8,99
403,023	9
403,383	9
403,743	9,01
404,103	9,03
404,463	9,01
404,823	8,99
405,183	9,03
405,543	9,03
405,903	9,05
406,262	9,05
406,622	9,02
406,982	8,97
407,342	8,93
407,701	8,96
408,061	8,97
408,42	9
408,78	9
409,139	9,01
409,499	9,05
409,858	9,12
410,217	9,16
410,577	9,16
410,936	9,18
411,295	9,14
411,655	9,12
412,014	9,13
412,373	9,14
412,732	9,16
413,091	9,21
413,45	9,23
413,809	9,27
414,168	9,28
414,527	9,29
414,886	9,31
415,245	9,3
415,603	9,3
415,962	9,28
416,321	9,26
416,679	9,27
417,038	9,25
417,397	9,22
417,755	9,22
418,114	9,23
418,472	9,24
418,831	9,26
419,189	9,28
419,547	9,29
419,906	9,32
420,264	9,34
420,622	9,35
420,981	9,36
421,339	9,37
421,697	9,38
422,055	9,4
422,413	9,42
422,771	9,43
423,129	9,45
423,487	9,48
423,845	9,5
424,203	9,53
424,56	9,56
424,918	9,58
425,276	9,61
425,634	9,66
425,991	9,71
426,349	9,73
426,707	9,74
427,064	9,77
427,422	9,78
427,779	9,79
428,137	9,82
428,494	9,85
428,851	9,87
429,209	9,91
429,566	9,89
429,923	9,91
430,28	9,95
430,637	9,96
430,995	9,97
431,352	10,02
431,709	10,03
432,066	10,06
432,423	10,09
432,78	10,12
433,137	10,15
433,493	10,12
433,85	10,17
434,207	10,18
434,564	10,18
434,92	10,2
435,277	10,22
435,634	10,26
435,99	10,27
436,347	10,29
436,703	10,32
437,06	10,37
437,416	10,39
437,773	10,38
438,129	10,39
438,485	10,43
438,841	10,42
439,198	10,42
439,554	10,41
439,91	10,41
440,266	10,41
440,622	10,4
440,978	10,42
441,334	10,41
441,69	10,44
442,046	10,45
442,402	10,46
442,758	10,47
443,113	10,45
443,469	10,44
443,825	10,44
444,181	10,46
444,536	10,47
444,892	10,49
445,247	10,51
445,603	10,51
445,958	10,52
446,314	10,53
446,669	10,55
447,025	10,56
447,38	10,57
447,735	10,59
448,09	10,6
448,446	10,6
448,801	10,62
449,156	10,61
449,511	10,62
449,866	10,63
450,221	10,66
450,576	10,7
450,931	10,74
451,286	10,77
451,641	10,78
451,995	10,8
452,35	10,79
452,705	10,79
453,06	10,84
453,414	10,84
453,769	10,85
454,123	10,86
454,478	10,89
454,832	10,91
455,187	10,89
455,541	10,88
455,896	10,88
456,25	10,87
456,604	10,9
456,958	10,91
457,313	10,94
457,667	10,95
458,021	10,94
458,375	10,96
458,729	10,97
459,083	10,96
459,437	10,97
459,791	10,97
460,145	10,99
460,499	10,98
460,852	10,97
461,206	10,99
461,56	10,98
461,914	10,96
462,267	10,97
462,621	10,98
462,974	11,02
463,328	11,04
463,681	11,07
464,035	11,07
464,388	11,1
464,742	11,09
465,095	11,1
465,448	11,12
465,801	11,11
466,155	11,14
466,508	11,15
466,861	11,14
467,214	11,11
467,567	11,13
467,92	11,13
468,273	11,14
468,626	11,15
468,979	11,16
469,332	11,18
469,684	11,15
470,037	11,16
470,39	11,16
470,743	11,16
471,095	11,15
471,448	11,15
471,8	11,15
472,153	11,15
472,505	11,14
472,858	11,12
473,21	11,11
473,562	11,12
473,915	11,12
474,267	11,14
474,619	11,16
474,971	11,15
475,324	11,16
475,676	11,16
476,028	11,14
476,38	11,14
476,732	11,13
477,084	11,14
477,436	11,16
477,787	11,15
478,139	11,16
478,491	11,21
478,843	11,21
479,195	11,21
479,546	11,2
479,898	11,18
480,249	11,18
480,601	11,19
480,952	11,17
481,304	11,17
481,655	11,18
482,007	11,18
482,358	11,19
482,709	11,18
483,061	11,18
483,412	11,19
483,763	11,19
484,114	11,19
484,465	11,2
484,816	11,2
485,167	11,2
485,518	11,2
485,869	11,19
486,22	11,19
486,571	11,2
486,922	11,21
487,272	11,22
487,623	11,23
487,974	11,24
488,324	11,24
488,675	11,25
489,025	11,25
489,376	11,26
489,726	11,27
490,077	11,27
490,427	11,28
490,778	11,29
491,128	11,3
491,478	11,31
491,828	11,33
492,179	11,36
492,529	11,37
492,879	11,4
493,229	11,41
493,579	11,43
493,929	11,43
494,279	11,44
494,629	11,45
494,979	11,48
495,328	11,49
495,678	11,55
496,028	11,56
496,378	11,59
496,727	11,64
497,077	11,66
497,426	11,7
497,776	11,73
498,125	11,75
498,475	11,79
498,824	11,83
499,174	11,85
499,523	11,85
499,872	11,88
500,221	11,91
500,571	11,97
500,92	12,01
501,269	12,06
501,618	12,1
501,967	12,15
502,316	12,19
502,665	12,22
503,014	12,25
503,363	12,31
503,711	12,35
504,06	12,36
504,409	12,4
504,758	12,45
505,106	12,49
505,455	12,53
505,803	12,56
506,152	12,6
506,5	12,64
506,849	12,69
507,197	12,74
507,546	12,77
507,894	12,79
508,242	12,82
508,59	12,85
508,939	12,91
509,287	12,95
509,635	13,01
509,983	13,07
510,331	13,13
510,679	13,18
511,027	13,22
511,375	13,31
511,723	13,38
512,07	13,43
512,418	13,48
512,766	13,52
513,114	13,6
513,461	13,66
513,809	13,73
514,156	13,79
514,504	13,85
514,851	13,93
515,199	14
515,546	14,08
515,893	14,17
516,241	14,22
516,588	14,28
516,935	14,35
517,282	14,38
517,63	14,42
517,977	14,49
518,324	14,53
518,671	14,57
519,018	14,6
519,365	14,67
519,711	14,72
520,058	14,81
520,405	14,85
520,752	14,9
521,099	14,95
521,445	15,04
521,792	15,12
522,138	15,18
522,485	15,28
522,832	15,36
523,178	15,45
523,524	15,53
523,871	15,59
524,217	15,64
524,563	15,73
524,91	15,8
525,256	15,86
525,602	15,93
525,948	15,96
526,294	16
526,64	16,03
526,986	16,07
527,332	16,09
527,678	16,14
528,024	16,18
528,37	16,2
528,716	16,22
529,061	16,24
529,407	16,27
529,753	16,28
530,098	16,31
530,444	16,33
530,789	16,34
531,135	16,37
531,48	16,4
531,826	16,44
532,171	16,48
532,516	16,53
532,862	16,59
533,207	16,65
533,552	16,71
533,897	16,74
534,242	16,76
534,587	16,81
534,932	16,82
535,277	16,83
535,622	16,86
535,967	16,89
536,312	16,92
536,657	16,97
537,001	17,03
537,346	17,09
537,691	17,14
538,035	17,19
538,38	17,24
538,724	17,27
539,069	17,3
539,413	17,32
539,758	17,32
540,102	17,35
540,446	17,37
540,791	17,38
541,135	17,4
541,479	17,43
541,823	17,42
542,167	17,44
542,512	17,48
542,856	17,49
543,2	17,51
543,543	17,52
543,887	17,53
544,231	17,54
544,575	17,57
544,919	17,59
545,262	17,64
545,606	17,67
545,95	17,7
546,293	17,71
546,637	17,74
546,98	17,79
547,324	17,81
547,667	17,84
548,011	17,87
548,354	17,91
548,697	17,92
549,04	17,96
549,384	17,99
549,727	17,99
550,07	18,01
550,413	18,02
550,756	18,04
551,099	18,06
551,442	18,07
551,785	18,06
552,128	18,08
552,47	18,05
552,813	18,04
553,156	18,02
553,499	18,03
553,841	18,01
554,184	18,01
554,526	18,01
554,869	18,01
555,211	17,99
555,554	17,99
555,896	18,03
556,238	18
556,581	17,99
556,923	17,96
557,265	17,95
557,607	17,96
557,949	17,93
558,291	17,93
558,633	17,94
558,975	17,91
559,317	17,89
559,659	17,89
560,001	17,87
560,343	17,86
560,685	17,83
561,026	17,8
561,368	17,77
561,71	17,72
562,051	17,68
562,393	17,72
562,734	17,66
563,076	17,62
563,417	17,58
563,759	17,53
564,1	17,54
564,441	17,55
564,782	17,52
565,124	17,47
565,465	17,45
565,806	17,4
566,147	17,38
566,488	17,36
566,829	17,34
567,17	17,3
567,511	17,27
567,851	17,25
568,192	17,23
568,533	17,19
568,874	17,19
569,214	17,16
569,555	17,08
569,895	17,08
570,236	17,06
570,576	17,03
570,917	16,99
571,257	16,92
571,598	16,87
571,938	16,81
572,278	16,8
572,618	16,77
572,959	16,73
573,299	16,7
573,639	16,67
573,979	16,64
574,319	16,62
574,659	16,61
574,999	16,6
575,339	16,58
575,678	16,57
576,018	16,53
576,358	16,5
576,698	16,46
577,037	16,41
577,377	16,37
577,716	16,34
578,056	16,32
578,395	16,31
578,735	16,29
579,074	16,26
579,413	16,21
579,753	16,18
580,092	16,17
580,431	16,12
580,77	16,07
581,109	16,04
581,448	16,01
581,787	15,97
582,126	15,94
582,465	15,88
582,804	15,81
583,143	15,75
583,482	15,75
583,82	15,72
584,159	15,67
584,498	15,6
584,836	15,56
585,175	15,51
585,514	15,45
585,852	15,42
586,19	15,39
586,529	15,37
586,867	15,36
587,205	15,33
587,544	15,3
587,882	15,27
588,22	15,26
588,558	15,29
588,896	15,27
589,234	15,25
589,572	15,26
589,91	15,28
590,248	15,28
590,586	15,24
590,924	15,23
591,262	15,29
591,599	15,31
591,937	15,32
592,275	15,33
592,612	15,36
592,95	15,37
593,287	15,36
593,625	15,36
593,962	15,34
594,299	15,34
594,637	15,33
594,974	15,35
595,311	15,32
595,648	15,27
595,985	15,26
596,322	15,25
596,659	15,24
596,996	15,21
597,333	15,22
597,67	15,24
598,007	15,24
598,344	15,21
598,681	15,2
599,017	15,21
599,354	15,22
599,691	15,19
600,027	15,15
600,364	15,12
600,7	15,11
601,037	15,1
601,373	15,09
601,71	15,08
602,046	15,07
602,382	15,09
602,718	15,11
603,054	15,12
603,391	15,16
603,727	15,16
604,063	15,16
604,399	15,12
604,735	15,12
605,071	15,16
605,406	15,15
605,742	15,15
606,078	15,14
606,414	15,12
606,749	15,13
607,085	15,13
607,421	15,15
607,756	15,14
608,092	15,13
608,427	15,13
608,762	15,13
609,098	15,12
609,433	15,07
609,768	15,01
610,104	14,97
610,439	14,92
610,774	14,91
611,109	14,9
611,444	14,91
611,779	14,85
612,114	14,78
612,449	14,75
612,784	14,68
613,118	14,64
613,453	14,6
613,788	14,56
614,123	14,56
614,457	14,55
614,792	14,53
615,126	14,48
615,461	14,45
615,795	14,44
616,13	14,42
616,464	14,41
616,798	14,41
617,132	14,37
617,467	14,32
617,801	14,29
618,135	14,28
618,469	14,28
618,803	14,28
619,137	14,3
619,471	14,28
619,805	14,25
620,139	14,22
620,472	14,21
620,806	14,21
621,14	14,16
621,473	14,14
621,807	14,1
622,141	14,1
622,474	14,13
622,808	14,12
623,141	14,07
623,474	14,08
623,808	14,08
624,141	14,1
624,474	14,12
624,807	14,09
625,141	14,05
625,474	14,06
625,807	14,06
626,14	14,06
626,473	14,09
626,806	14,15
627,138	14,2
627,471	14,17
627,804	14,14
628,137	14,15
628,469	14,15
628,802	14,18
629,135	14,22
629,467	14,17
629,8	14,17
630,132	14,15
630,465	14,13
630,797	14,13
631,129	14,09
631,461	14,06
631,794	14,08
632,126	14,07
632,458	14,04
632,79	14,01
633,122	13,98
633,454	13,93
633,786	13,9
634,118	13,87
634,45	13,87
634,781	13,89
635,113	13,88
635,445	13,9
635,777	13,88
636,108	13,85
636,44	13,85
636,771	13,85
637,103	13,89
637,434	13,88
637,765	13,85
638,097	13,89
638,428	13,9
638,759	13,89
639,09	13,87
639,422	13,84
639,753	13,83
640,084	13,81
640,415	13,83
640,746	13,81
641,077	13,77
641,407	13,77
641,738	13,76
642,069	13,72
642,4	13,62
642,73	13,57
643,061	13,51
643,392	13,5
643,722	13,47
644,053	13,42
644,383	13,41
644,713	13,4
645,044	13,35
645,374	13,31
645,704	13,29
646,034	13,29
646,365	13,3
646,695	13,26
647,025	13,23
647,355	13,16
647,685	13,14
648,015	13,14
648,344	13,1
648,674	13,08
649,004	13,12
649,334	13,13
649,663	13,09
649,993	13,11
650,323	13,05
650,652	12,97
650,982	12,99
651,311	12,91
651,64	12,84
651,97	12,79
652,299	12,82
652,628	12,79
652,958	12,77
653,287	12,72
653,616	12,69
653,945	12,72
654,274	12,76
654,603	12,74
654,932	12,69
655,261	12,67
655,589	12,62
655,918	12,55
656,247	12,48
656,576	12,45
656,904	12,42
657,233	12,36
657,561	12,38
657,89	12,33
658,218	12,32
658,547	12,35
658,875	12,35
659,203	12,31
659,532	12,26
659,86	12,22
660,188	12,19
660,516	12,21
660,844	12,16
661,172	12,07
661,5	12
661,828	12
662,156	12,02
662,484	11,98
662,811	11,93
663,139	11,92
663,467	11,88
663,794	11,84
664,122	11,85
664,45	11,8
664,777	11,83
665,104	11,84
665,432	11,8
665,759	11,78
666,086	11,75
666,414	11,75
666,741	11,69
667,068	11,7
667,395	11,67
667,722	11,67
668,049	11,68
668,376	11,7
668,703	11,69
669,03	11,63
669,357	11,66
669,683	11,66
670,01	11,7
670,337	11,74
670,663	11,74
670,99	11,74
671,317	11,78
671,643	11,73
671,969	11,73
672,296	11,78
672,622	11,83
672,948	11,82
673,275	11,82
673,601	11,85
673,927	11,88
674,253	11,9
674,579	11,91
674,905	11,91
675,231	11,9
675,557	11,88
675,883	11,85
676,209	11,81
676,534	11,83
676,86	11,78
677,186	11,78
677,511	11,79
677,837	11,82
678,162	11,84
678,488	11,89
678,813	11,92
679,139	11,89
679,464	11,85
679,789	11,85
680,114	11,9
680,44	11,96
680,765	11,98
681,09	11,96
681,415	11,98
681,74	12,08
682,065	12,11
682,39	12,16
682,714	12,24
683,039	12,32
683,364	12,37
683,689	12,46
684,013	12,58
684,338	12,63
684,662	12,63
684,987	12,68
685,311	12,71
685,636	12,81
685,96	12,92
686,284	13,07
686,608	13,19
686,933	13,3
687,257	13,46
687,581	13,56
687,905	13,7
688,229	13,8
688,553	13,85
688,877	13,97
689,201	14,1
689,524	14,23
689,848	14,38
690,172	14,53
690,496	14,59
690,819	14,67
691,143	14,79
691,466	14,98
691,79	15,13
692,113	15,29
692,436	15,41
692,76	15,52
693,083	15,59
693,406	15,76
693,729	15,87
694,053	15,94
694,376	16,17
694,699	16,31
695,022	16,47
695,344	16,65
695,667	16,83
695,99	17,06
696,313	17,17
696,636	17,28
696,958	17,39
697,281	17,64
697,604	17,81
697,926	18,02
698,249	18,28
698,571	18,45
698,893	18,69
699,216	18,94
699,538	19,16
699,86	19,39
700,182	19,59
700,504	19,82
700,827	20,02
701,149	20,21
701,471	20,46
701,793	20,72
702,114	21,1
702,436	21,49
702,758	21,77
703,08	22,2
703,401	22,62
703,723	23,1
704,045	23,43
704,366	23,78
704,688	24,15
705,009	24,28
705,331	24,61
705,652	24,79
705,973	24,94
706,294	25,16
706,616	25,38
706,937	25,57
707,258	25,85
707,579	26,02
707,9	26,22
708,221	26,48
708,542	26,79
708,863	26,98
709,183	27,18
709,504	27,39
709,825	27,66
710,145	27,85
710,466	28,04
710,787	28,35
711,107	28,61
711,427	28,77
711,748	29,02
712,068	29,21
712,388	29,51
712,709	29,79
713,029	30,03
713,349	30,26
713,669	30,48
713,989	30,72
714,309	31,09
714,629	31,38
714,949	31,68
715,269	31,94
715,589	32,23
715,908	32,57
716,228	32,93
716,548	33,2
716,867	33,59
717,187	33,94
717,506	34,14
717,826	34,3
718,145	34,67
718,465	35,12
718,784	35,44
719,103	35,78
719,422	36,17
719,741	36,56
720,061	37,01
720,38	37,49
720,699	37,78
721,018	38,11
721,336	38,46
721,655	38,68
721,974	38,96
722,293	39,13
722,612	39,45
722,93	39,76
723,249	40,03
723,567	40,31
723,886	40,36
724,204	40,54
724,523	40,9
724,841	41,1
725,159	41,27
725,477	41,43
725,796	41,59
726,114	41,71
726,432	41,85
726,75	42,03
727,068	42,1
727,386	42,32
727,704	42,41
728,022	42,56
728,339	42,73
728,657	43,09
728,975	43,39
729,292	43,66
729,61	43,87
729,928	44,07
730,245	44,12
730,562	44,48
730,88	44,72
731,197	44,98
731,514	45,23
731,832	45,36
732,149	45,81
732,466	46,03
732,783	46,37
733,1	46,57
733,417	46,8
733,734	47,17
734,051	47,39
734,368	47,52
734,684	47,62
735,001	47,91
735,318	47,91
735,634	48,05
735,951	48,21
736,268	48,35
736,584	48,58
736,9	48,88
737,217	48,94
737,533	49,07
737,849	49,17
738,166	49,31
738,482	49,53
738,798	49,46
739,114	49,67
739,43	49,72
739,746	49,98
740,062	50,03
740,378	50,14
740,693	50,37
741,009	50,64
741,325	50,84
741,641	50,99
741,956	51,21
742,272	51,48
742,587	51,52
742,903	51,56
743,218	51,7
743,533	51,62
743,849	51,91
744,164	52,03
744,479	52,05
744,794	52,11
745,109	52,25
745,424	52,48
745,739	52,39
746,054	52,44
746,369	52,54
746,684	52,71
746,999	52,66
747,313	52,7
747,628	52,78
747,943	52,8
748,257	52,81
748,572	52,87
748,886	52,98
749,201	53
749,515	53,13
749,829	53,27
750,144	53,76
750,458	53,93
750,772	54,16
751,086	54,32
751,4	54,31
751,714	54,45
752,028	54,56
752,342	54,88
752,656	54,89
752,97	54,99
753,284	54,97
753,597	55,07
753,911	55,24
754,225	55,41
754,538	55,57
754,852	55,49
755,165	55,55
755,478	55,42
755,792	55,46
756,105	55,44
756,418	55,33
756,731	55,14
757,045	55,08
757,358	55,38
757,671	55,43
757,984	55,57
758,297	55,69
758,609	55,52
758,922	55,21
759,235	55,54
759,548	55,47
759,86	55,7
760,173	55,7
760,486	55,24
760,798	55,04
761,111	55,32
761,423	55,44
761,735	55,56
762,048	55,59
762,36	55,71
762,672	55,74
762,984	55,79
763,296	55,82
763,608	55,76
763,92	55,64
764,232	55,79
764,544	55,72
764,856	55,62
765,168	55,81
765,48	55,95
765,791	55,77
766,103	55,82
766,414	55,66
766,726	55,8
767,037	56,14
767,349	56,38
767,66	56,24
767,972	56,34
768,283	56,46
768,594	56,64
768,905	56,63
769,216	56,65
769,527	56,82
769,838	56,67
770,149	56,5
770,46	56,31
770,771	55,96
771,082	56,1
771,393	55,94
771,703	55,74
772,014	55,87
772,324	56,01
772,635	55,94
772,945	56,03
773,256	56,01
773,566	56,11
773,877	56,03
774,187	55,99
774,497	56,25
774,807	56,02
775,117	55,98
775,427	55,94
775,737	56,2
776,047	56,03
776,357	56,44
776,667	56,59
776,977	56,83
777,287	57,01
777,596	56,91
777,906	57,05
778,216	56,84
778,525	56,79
778,835	56,71
779,144	57,33
779,453	57,41
779,763	57,34
780,072	57,34
780,381	57,24
780,69	57,23
781	57,06
781,309	57,27
781,618	57,29
781,927	57,74
782,235	57,87
782,544	58,03
782,853	57,88
783,162	57,96
783,471	57,71
783,779	57,83
784,088	58,05
784,396	58,17
784,705	58,43
785,013	58,67
785,322	58,72
785,63	58,24
785,938	57,88
786,246	57,8
786,554	57,63
786,863	57,84
787,171	58,15
787,479	58,2
787,787	57,69
788,094	57,87
788,402	57,78
788,71	57,6
789,018	57,44
789,326	57,58
789,633	57,8
789,941	58,34
790,248	58,64
790,556	58,66
790,863	58,8
791,171	58,76
791,478	58,68
791,785	59,01
792,092	59,27
792,399	59,79
792,707	59,64
793,014	60,04
793,321	60,04
793,628	59,71
793,934	59,77
794,241	60,39
794,548	60,66
794,855	60,42
795,161	60,35
795,468	60,38
795,775	60,04
796,081	59,94
796,388	59,51
796,694	58,98
797	59
797,307	58,93
797,613	58,83
797,919	58,59
798,225	58,07
798,531	57,98
798,837	57,96
799,143	58,05
799,449	57,99
799,755	58
800,061	58,06
800,367	58,03
800,672	57,98
800,978	57,77
801,284	57,73
801,589	57,53
801,895	57,51
802,2	57,92
802,506	57,97
802,811	57,93
803,116	57,91
803,421	57,59
803,727	57,82
804,032	58,12
804,337	58,41
804,642	58,43
804,947	57,97
805,252	57,89
805,556	57,9
805,861	57,62
806,166	57,77
806,471	58,2
806,775	58,28
807,08	58,67
807,384	58,69
807,689	58,34
807,993	58,55
808,298	58,78
808,602	58,94
808,906	59,09
809,211	59,63
809,515	59,9
809,819	60,73
810,123	60,73
810,427	60,31
810,731	59,96
811,035	60,16
811,338	60,77
811,642	60,87
811,946	61,44
812,25	61,47
812,553	61,1
812,857	60,71
813,16	60,41
813,464	59,79
813,767	59,68
814,07	60,12
814,374	60,38
814,677	60,24
814,98	59,58
815,283	59,25
815,586	59,1
815,889	59,2
816,192	59,08
816,495	59,11
816,798	59,13
817,101	59,38
817,404	59,08
817,706	58,74
818,009	58,96
818,312	58,64
818,614	58,42
818,917	58,47
819,219	58,09
819,521	57,95
819,824	57,71
820,126	57,32
820,428	57,15
820,73	56,95
821,032	56,96
821,334	56,8
821,636	56,92
821,938	56,87
822,24	56,81
822,542	56,77
822,844	56,81
823,145	56,94
823,447	57,08
823,749	57,23
824,05	57,24
824,352	57,13
824,653	57,09
824,955	57,2
825,256	57,15
825,557	57,12
825,858	57,17
826,16	57,2
826,461	57,37
826,762	57,5
827,063	57,64
827,364	57,64
827,665	58,06
827,965	58,02
828,266	58,16
828,567	58,27
828,868	58,35
829,168	58,26
829,469	58,15
829,769	58
830,07	57,87
830,37	57,9
830,67	58,02
830,971	58,13
831,271	57,91
831,571	57,92
831,871	58,35
832,171	58,45
832,471	58,4
832,771	58,17
833,071	57,98
833,371	57,96
833,671	58,12
833,971	58,06
834,27	58,09
834,57	57,97
834,869	58
835,169	58,02
835,468	58,1
835,768	58,09
836,067	57,88
836,367	57,87
836,666	57,62
836,965	57,61
837,264	57,53
837,563	57,63
837,862	57,86
838,161	57,78
838,46	57,87
838,759	58,15
839,058	58,1
839,356	58,42
839,655	59,29
839,954	59,4
840,252	59,16
840,551	59
840,849	58,74
841,148	59,37
841,446	59,36
841,744	58,81
842,043	58,28
842,341	57,77
842,639	58,59
842,937	59,21
843,235	59,33
843,533	60,03
843,831	60,12
844,129	60,4
844,427	60,48
844,724	60,39
845,022	59,53
845,32	60,09
845,617	60,05
845,915	58,99
846,212	58,85
846,51	58,61
846,807	58,86
847,104	59,94
847,402	59,79
847,699	60,53
847,996	61,81
848,293	63,23
848,59	63,79
848,887	61,57
849,184	61,82
849,481	61,88
849,778	62,46
850,074	62,26
850,371	60,3
850,668	58,34
850,964	58,38
851,261	60,56
851,557	61,97
851,854	63,2
852,15	62,95
852,446	62,57
852,743	62,35
853,039	63,01
853,335	63,46
853,631	63,19
853,927	63,31
854,223	63,59
854,519	64,25
854,815	64,34
855,111	64,42
855,406	64,7
855,702	64,48
855,998	62,86
856,293	64,54
856,589	67,02
856,884	69,21
857,18	69,4
857,475	66,94
857,77	66,28
858,066	64,81
858,361	65,77
858,656	67,45
858,951	69,54
859,246	68,5
859,541	67,57
859,836	65,16
860,131	61,99
860,426	61,46
860,72	60,8
861,015	59,94
861,31	62,14
861,604	64,46
861,899	65,53
862,193	65,7
862,487	64,16
862,782	63,95
863,076	64,44
863,37	64
863,664	65,43
863,959	66,04
864,253	69,67
864,547	69,18
864,841	67,43
865,135	65,97
865,428	66,3
865,722	66,52
866,016	68,32
866,31	71,18
866,603	70,06
866,897	67,63
867,19	68,31
867,484	66,32
867,777	63,92
868,07	61,87
868,364	61,43
868,657	61,01
868,95	61,56
869,243	59,07
869,536	58,41
869,829	58,09
870,122	57,81
870,415	56,7
870,708	57,91
871	57,63
871,293	57,45
871,586	58,35
871,878	59,37
872,171	57,75
872,463	56,39
872,756	55,59
873,048	56,84
873,341	57,13
873,633	57,52
873,925	57,44
874,217	58,6
874,509	59,49
874,801	60,54
875,093	59,28
875,385	63,08
875,677	64,8
875,969	65,85
