Data from palm_cartel_v_45_90_Reflection_00002.txt Node
Date: Fri Feb 11 15:11:17 ART 2022
User: Nati
Spectrometer: USB2E3644
Trigger mode: 4
Integration Time (sec): 3,520000E-1
Scans to average: 10
Electric dark correction enabled: true
Nonlinearity correction enabled: false
Boxcar width: 10
XAxis mode: Wavelengths
Number of Pixels in Spectrum: 2048
>>>>>Begin Spectral Data<<<<<
178,315	26,71
178,696	26,56
179,076	33,2
179,457	29,52
179,838	45,54
180,218	65
180,599	59,74
180,979	61,54
181,36	-70
181,74	17,79
182,121	58,49
182,501	52,83
182,881	-10
183,262	-100
183,642	-520
184,022	158,62
184,402	200
184,783	253,16
185,163	442,31
185,543	275,95
185,923	217,05
186,303	150,52
186,683	126,96
187,063	90,73
187,443	53,78
187,823	40,36
188,203	32,91
188,583	46,44
188,963	47
189,343	48,56
189,723	47,32
190,102	50
190,482	43,73
190,862	37,73
191,242	33,62
191,621	19,24
192,001	15,35
192,38	12,91
192,76	10,73
193,14	7,52
193,519	11,84
193,898	9,42
194,278	13,55
194,657	21,06
195,037	23,73
195,416	30,25
195,795	28,73
196,175	31,28
196,554	28,11
196,933	32,95
197,312	31,09
197,692	29,74
198,071	27,03
198,45	30,43
198,829	34,73
199,208	41,99
199,587	59,13
199,966	60,96
200,345	61,22
200,724	61,58
201,103	62,68
201,482	57,32
201,86	57,77
202,239	70,97
202,618	69,62
202,997	67,84
203,375	66,31
203,754	67,44
204,133	66,17
204,511	59,61
204,89	50,74
205,269	51,5
205,647	63,95
206,026	76,33
206,404	71,65
206,782	65,07
207,161	52,09
207,539	50,72
207,918	63,56
208,296	66,47
208,674	70,5
209,052	70,66
209,431	70,7
209,809	72,56
210,187	62,97
210,565	54,64
210,943	59,89
211,321	73,05
211,699	80,27
212,077	80,52
212,455	86,83
212,833	96,87
213,211	100,78
213,589	101,5
213,967	95,33
214,345	95,33
214,722	95,94
215,1	100,21
215,478	95,5
215,855	83,54
216,233	77,08
216,611	72,09
216,988	76,08
217,366	79,32
217,743	73,43
218,121	72,64
218,498	74,05
218,876	68,8
219,253	60,99
219,631	56,99
220,008	52,92
220,385	45,73
220,762	35,09
221,14	28,82
221,517	26,6
221,894	30,47
222,271	33,42
222,648	38,1
223,025	39,41
223,402	38,43
223,78	40,14
224,157	42,48
224,533	38,27
224,91	34,21
225,287	30,69
225,664	36,43
226,041	37,1
226,418	31,67
226,795	34,29
227,171	39,02
227,548	44,09
227,925	46,31
228,301	50,37
228,678	57,46
229,055	68,26
229,431	72,36
229,808	66,95
230,184	62,04
230,561	59,88
230,937	62,48
231,313	61,43
231,69	55,96
232,066	54,15
232,442	58,29
232,819	54,52
233,195	52,1
233,571	52,25
233,947	55,06
234,323	57,34
234,699	53,57
235,075	48,94
235,451	44,03
235,827	43,72
236,203	38,51
236,579	34,92
236,955	27,54
237,331	19,83
237,707	18,15
238,083	15,73
238,459	9,52
238,834	6,65
239,21	5,18
239,586	5,62
239,961	5,21
240,337	6,46
240,713	9,55
241,088	10,2
241,464	10,44
241,839	9,97
242,215	10,5
242,59	11,43
242,965	9,41
243,341	8,22
243,716	7,15
244,091	7,25
244,467	6,2
244,842	5,44
245,217	4,87
245,592	4,76
245,967	4,62
246,343	6,2
246,718	6,91
247,093	7,31
247,468	7,14
247,843	7,09
248,218	7,03
248,593	6,56
248,967	5,63
249,342	5,98
249,717	6,16
250,092	4,53
250,467	3,58
250,841	3,91
251,216	4,1
251,591	3,27
251,965	3,48
252,34	4,49
252,714	4,82
253,089	6,66
253,463	7,34
253,838	8,1
254,212	7,28
254,587	5,99
254,961	6,12
255,335	7,32
255,71	7,69
256,084	6,85
256,458	6,35
256,832	6,9
257,206	6,24
257,581	5,92
257,955	6,33
258,329	5,69
258,703	5,7
259,077	5,88
259,451	6,2
259,825	5,93
260,199	5,46
260,572	5,22
260,946	5,11
261,32	5,41
261,694	5,56
262,068	5,65
262,441	5,78
262,815	5,65
263,189	5,75
263,562	5,73
263,936	6,09
264,309	6,66
264,683	6,85
265,056	7,72
265,43	7,85
265,803	7,96
266,176	8,82
266,55	8,49
266,923	8,06
267,296	8,42
267,67	7,97
268,043	7,27
268,416	7,17
268,789	7,07
269,162	6,96
269,535	6,86
269,908	6,68
270,281	6,35
270,654	6,45
271,027	5,85
271,4	5,73
271,773	5,7
272,146	4,97
272,519	4,7
272,891	4,24
273,264	3,97
273,637	3,73
274,01	3,61
274,382	4,02
274,755	4,54
275,127	4,48
275,5	4,82
275,872	5,76
276,245	6,24
276,617	6,64
276,99	6,57
277,362	6,55
277,734	6,51
278,107	6,72
278,479	6,41
278,851	6,49
279,223	6,64
279,596	6,52
279,968	7,06
280,34	7,03
280,712	6,87
281,084	6,88
281,456	6,94
281,828	6,84
282,2	7,02
282,572	7,11
282,944	6,79
283,315	6,76
283,687	6,5
284,059	6,34
284,431	6,17
284,802	6,34
285,174	6,27
285,546	6,2
285,917	6,39
286,289	6,59
286,66	6,38
287,032	6,03
287,403	5,88
287,775	5,8
288,146	5,71
288,518	5,88
288,889	6,09
289,26	6,39
289,632	6,76
290,003	6,93
290,374	6,81
290,745	6,72
291,116	6,58
291,487	6,21
291,858	6,26
292,229	6,3
292,6	6,02
292,971	5,97
293,342	5,94
293,713	6,05
294,084	5,82
294,455	5,85
294,826	5,96
295,196	6,3
295,567	6,7
295,938	7,21
296,308	7,1
296,679	7
297,05	6,83
297,42	6,43
297,791	6,12
298,161	6,01
298,532	6,26
298,902	6,24
299,272	6,51
299,643	6,76
300,013	6,71
300,383	6,59
300,754	6,53
301,124	6,41
301,494	5,88
301,864	5,76
302,234	5,77
302,604	5,66
302,974	5,84
303,344	5,66
303,714	5,49
304,084	5,59
304,454	5,57
304,824	5,89
305,194	6,14
305,563	6,19
305,933	6,22
306,303	6,19
306,673	6,27
307,042	6,45
307,412	6,33
307,781	6,38
308,151	6,76
308,521	6,93
308,89	7,17
309,259	7,49
309,629	7,72
309,998	7,78
310,368	7,79
310,737	7,43
311,106	7,2
311,475	7,24
311,845	7,17
312,214	7,19
312,583	7,07
312,952	7,23
313,321	7,32
313,69	7,3
314,059	7,49
314,428	7,71
314,797	7,71
315,166	7,84
315,535	7,8
315,904	7,69
316,272	7,56
316,641	7,54
317,01	7,54
317,379	7,51
317,747	7,4
318,116	7,5
318,484	7,52
318,853	7,54
319,221	7,41
319,59	7,31
319,958	7,27
320,327	7,12
320,695	6,99
321,063	6,8
321,432	6,78
321,8	6,5
322,168	6,11
322,536	5,81
322,905	5,56
323,273	5,6
323,641	5,6
324,009	5,69
324,377	5,71
324,745	5,79
325,113	5,84
325,481	5,95
325,849	5,97
326,216	5,95
326,584	5,93
326,952	5,87
327,32	5,88
327,687	5,92
328,055	5,97
328,423	5,96
328,79	6,04
329,158	6,07
329,525	6,07
329,893	6,17
330,26	6,38
330,628	6,58
330,995	6,6
331,362	6,51
331,73	6,52
332,097	6,44
332,464	6,31
332,831	6,2
333,199	6,11
333,566	6,14
333,933	6,1
334,3	6,11
334,667	6,18
335,034	6,19
335,401	6,19
335,768	6,27
336,135	6,21
336,502	6,1
336,868	6,04
337,235	6,11
337,602	6,11
337,969	5,99
338,335	5,79
338,702	5,72
339,069	5,8
339,435	5,83
339,802	5,85
340,168	5,84
340,535	5,82
340,901	5,75
341,267	5,67
341,634	5,6
342	5,54
342,366	5,5
342,733	5,56
343,099	5,45
343,465	5,38
343,831	5,37
344,197	5,38
344,563	5,38
344,929	5,3
345,295	5,26
345,661	5,27
346,027	5,39
346,393	5,38
346,759	5,32
347,125	5,23
347,491	5,14
347,856	5,09
348,222	5,06
348,588	5,1
348,953	5,09
349,319	5,12
349,684	5,11
350,05	5,12
350,415	5,04
350,781	5,09
351,146	5,1
351,512	5,07
351,877	5,04
352,242	5,07
352,608	4,99
352,973	5,04
353,338	5
353,703	4,87
354,068	4,89
354,433	4,89
354,798	4,86
355,164	4,94
355,528	5
355,893	5,02
356,258	4,98
356,623	4,96
356,988	4,96
357,353	4,97
357,718	4,89
358,082	4,86
358,447	4,85
358,812	4,81
359,176	4,83
359,541	4,76
359,905	4,66
360,27	4,72
360,634	4,73
360,999	4,74
361,363	4,8
361,728	4,75
362,092	4,73
362,456	4,74
362,821	4,66
363,185	4,66
363,549	4,64
363,913	4,7
364,277	4,75
364,641	4,76
365,005	4,73
365,369	4,8
365,733	4,81
366,097	4,84
366,461	4,84
366,825	4,78
367,189	4,84
367,553	4,9
367,916	4,87
368,28	4,86
368,644	4,83
369,007	4,75
369,371	4,75
369,734	4,75
370,098	4,78
370,461	4,8
370,825	4,76
371,188	4,78
371,552	4,74
371,915	4,66
372,278	4,64
372,642	4,63
373,005	4,59
373,368	4,57
373,731	4,54
374,094	4,55
374,457	4,56
374,82	4,53
375,183	4,49
375,546	4,53
375,909	4,56
376,272	4,59
376,635	4,67
376,998	4,67
377,361	4,66
377,723	4,63
378,086	4,68
378,449	4,75
378,811	4,78
379,174	4,77
379,537	4,79
379,899	4,8
380,262	4,86
380,624	4,89
380,987	4,97
381,349	4,96
381,711	4,97
382,074	4,99
382,436	5,03
382,798	5,65
383,16	5,58
383,522	5,58
383,884	5,58
384,247	5,56
384,609	5,59
384,971	5,61
385,333	5,61
385,695	5,55
386,056	5,46
386,418	5,39
386,78	5,41
387,142	5,35
387,504	5,3
387,865	5,21
388,227	5,16
388,589	5,11
388,95	5,11
389,312	5,08
389,673	5,13
390,035	5,12
390,396	4,65
390,758	4,65
391,119	4,62
391,48	4,59
391,842	4,57
392,203	4,54
392,564	4,53
392,925	4,54
393,286	4,54
393,648	4,58
394,009	4,58
394,37	4,57
394,731	4,61
395,092	4,63
395,452	4,66
395,813	4,67
396,174	4,66
396,535	4,67
396,896	4,67
397,257	4,63
397,617	4,6
397,978	4,63
398,338	4,64
398,699	4,64
399,06	4,65
399,42	4,63
399,781	4,65
400,141	4,64
400,501	4,64
400,862	4,65
401,222	4,61
401,582	4,61
401,943	4,63
402,303	4,59
402,663	4,57
403,023	4,55
403,383	4,55
403,743	4,54
404,103	4,55
404,463	4,55
404,823	4,58
405,183	4,59
405,543	4,57
405,903	4,56
406,262	4,57
406,622	4,57
406,982	4,59
407,342	4,6
407,701	4,64
408,061	4,62
408,42	4,62
408,78	4,64
409,139	4,67
409,499	4,66
409,858	4,71
410,217	4,73
410,577	4,75
410,936	4,79
411,295	4,84
411,655	4,86
412,014	4,91
412,373	4,89
412,732	4,9
413,091	4,9
413,45	4,91
413,809	4,92
414,168	4,92
414,527	4,91
414,886	4,91
415,245	4,9
415,603	4,92
415,962	4,9
416,321	4,92
416,679	4,91
417,038	4,92
417,397	4,9
417,755	4,91
418,114	4,92
418,472	4,91
418,831	4,91
419,189	4,91
419,547	4,9
419,906	4,9
420,264	4,9
420,622	4,91
420,981	4,94
421,339	4,94
421,697	4,95
422,055	4,96
422,413	4,97
422,771	4,99
423,129	5,02
423,487	5,06
423,845	5,09
424,203	5,12
424,56	5,15
424,918	5,19
425,276	5,23
425,634	5,26
425,991	5,3
426,349	5,3
426,707	5,32
427,064	5,33
427,422	5,36
427,779	5,39
428,137	5,42
428,494	5,45
428,851	5,5
429,209	5,52
429,566	5,55
429,923	5,56
430,28	5,59
430,637	5,64
430,995	5,61
431,352	5,61
431,709	5,6
432,066	5,63
432,423	5,62
432,78	5,61
433,137	5,64
433,493	5,63
433,85	5,69
434,207	5,66
434,564	5,67
434,92	5,68
435,277	5,71
435,634	5,72
435,99	5,71
436,347	5,74
436,703	5,79
437,06	5,81
437,416	5,82
437,773	5,8
438,129	5,78
438,485	5,83
438,841	5,81
439,198	5,83
439,554	5,82
439,91	5,85
440,266	5,86
440,622	5,86
440,978	5,88
441,334	5,87
441,69	5,91
442,046	5,92
442,402	5,94
442,758	5,96
443,113	5,97
443,469	5,99
443,825	5,99
444,181	5,98
444,536	5,99
444,892	6,01
445,247	6,05
445,603	6,07
445,958	6,07
446,314	6,1
446,669	6,12
447,025	6,14
447,38	6,15
447,735	6,17
448,09	6,19
448,446	6,2
448,801	6,2
449,156	6,22
449,511	6,23
449,866	6,26
450,221	6,29
450,576	6,32
450,931	6,34
451,286	6,37
451,641	6,39
451,995	6,42
452,35	6,46
452,705	6,47
453,06	6,47
453,414	6,48
453,769	6,51
454,123	6,52
454,478	6,5
454,832	6,54
455,187	6,51
455,541	6,51
455,896	6,49
456,25	6,51
456,604	6,53
456,958	6,54
457,313	6,53
457,667	6,53
458,021	6,54
458,375	6,54
458,729	6,55
459,083	6,56
459,437	6,58
459,791	6,56
460,145	6,58
460,499	6,59
460,852	6,6
461,206	6,61
461,56	6,62
461,914	6,64
462,267	6,61
462,621	6,64
462,974	6,64
463,328	6,66
463,681	6,66
464,035	6,68
464,388	6,69
464,742	6,7
465,095	6,71
465,448	6,72
465,801	6,71
466,155	6,71
466,508	6,72
466,861	6,7
467,214	6,7
467,567	6,69
467,92	6,71
468,273	6,69
468,626	6,68
468,979	6,71
469,332	6,7
469,684	6,71
470,037	6,75
470,39	6,76
470,743	6,77
471,095	6,78
471,448	6,77
471,8	6,77
472,153	6,76
472,505	6,76
472,858	6,76
473,21	6,77
473,562	6,78
473,915	6,77
474,267	6,78
474,619	6,79
474,971	6,78
475,324	6,79
475,676	6,81
476,028	6,79
476,38	6,77
476,732	6,78
477,084	6,78
477,436	6,75
477,787	6,74
478,139	6,74
478,491	6,75
478,843	6,75
479,195	6,77
479,546	6,76
479,898	6,75
480,249	6,75
480,601	6,76
480,952	6,74
481,304	6,75
481,655	6,76
482,007	6,74
482,358	6,74
482,709	6,74
483,061	6,72
483,412	6,72
483,763	6,72
484,114	6,71
484,465	6,71
484,816	6,71
485,167	6,71
485,518	6,71
485,869	6,71
486,22	6,71
486,571	6,71
486,922	6,73
487,272	6,74
487,623	6,74
487,974	6,74
488,324	6,74
488,675	6,74
489,025	6,74
489,376	6,76
489,726	6,77
490,077	6,79
490,427	6,79
490,778	6,81
491,128	6,83
491,478	6,84
491,828	6,86
492,179	6,88
492,529	6,91
492,879	6,93
493,229	6,94
493,579	6,96
493,929	6,96
494,279	6,96
494,629	6,98
494,979	7
495,328	7,04
495,678	7,07
496,028	7,11
496,378	7,13
496,727	7,16
497,077	7,2
497,426	7,25
497,776	7,26
498,125	7,3
498,475	7,33
498,824	7,37
499,174	7,37
499,523	7,41
499,872	7,43
500,221	7,46
500,571	7,5
500,92	7,54
501,269	7,59
501,618	7,64
501,967	7,67
502,316	7,71
502,665	7,74
503,014	7,77
503,363	7,81
503,711	7,85
504,06	7,88
504,409	7,94
504,758	7,96
505,106	8,03
505,455	8,07
505,803	8,11
506,152	8,14
506,5	8,2
506,849	8,25
507,197	8,28
507,546	8,34
507,894	8,39
508,242	8,44
508,59	8,49
508,939	8,53
509,287	8,58
509,635	8,65
509,983	8,71
510,331	8,79
510,679	8,85
511,027	8,92
511,375	8,99
511,723	9,03
512,07	9,09
512,418	9,17
512,766	9,24
513,114	9,3
513,461	9,38
513,809	9,45
514,156	9,53
514,504	9,62
514,851	9,69
515,199	9,77
515,546	9,87
515,893	9,95
516,241	10,05
516,588	10,12
516,935	10,18
517,282	10,25
517,63	10,31
517,977	10,38
518,324	10,45
518,671	10,5
519,018	10,57
519,365	10,62
519,711	10,68
520,058	10,75
520,405	10,83
520,752	10,88
521,099	10,99
521,445	11,08
521,792	11,17
522,138	11,27
522,485	11,37
522,832	11,46
523,178	11,55
523,524	11,64
523,871	11,73
524,217	11,81
524,563	11,92
524,91	12,02
525,256	12,12
525,602	12,22
525,948	12,3
526,294	12,36
526,64	12,41
526,986	12,45
527,332	12,49
527,678	12,51
528,024	12,55
528,37	12,58
528,716	12,61
529,061	12,66
529,407	12,7
529,753	12,76
530,098	12,79
530,444	12,84
530,789	12,88
531,135	12,92
531,48	12,95
531,826	12,98
532,171	13,04
532,516	13,08
532,862	13,13
533,207	13,17
533,552	13,21
533,897	13,26
534,242	13,29
534,587	13,34
534,932	13,41
535,277	13,44
535,622	13,46
535,967	13,49
536,312	13,52
536,657	13,57
537,001	13,59
537,346	13,63
537,691	13,68
538,035	13,71
538,38	13,72
538,724	13,74
539,069	13,77
539,413	13,78
539,758	13,8
540,102	13,83
540,446	13,85
540,791	13,87
541,135	13,9
541,479	13,93
541,823	13,95
542,167	13,94
542,512	13,99
542,856	13,98
543,2	13,99
543,543	13,99
543,887	14
544,231	14,02
544,575	14,04
544,919	14,05
545,262	14,09
545,606	14,12
545,95	14,14
546,293	14,17
546,637	14,21
546,98	14,24
547,324	14,25
547,667	14,31
548,011	14,32
548,354	14,33
548,697	14,34
549,04	14,35
549,384	14,36
549,727	14,34
550,07	14,37
550,413	14,4
550,756	14,4
551,099	14,41
551,442	14,44
551,785	14,49
552,128	14,49
552,47	14,48
552,813	14,51
553,156	14,52
553,499	14,53
553,841	14,52
554,184	14,49
554,526	14,5
554,869	14,47
555,211	14,47
555,554	14,47
555,896	14,46
556,238	14,45
556,581	14,45
556,923	14,44
557,265	14,45
557,607	14,42
557,949	14,45
558,291	14,42
558,633	14,36
558,975	14,3
559,317	14,28
559,659	14,27
560,001	14,24
560,343	14,19
560,685	14,16
561,026	14,1
561,368	14,09
561,71	14,05
562,051	14,01
562,393	14,02
562,734	13,94
563,076	13,88
563,417	13,81
563,759	13,75
564,1	13,71
564,441	13,66
564,782	13,62
565,124	13,53
565,465	13,5
565,806	13,47
566,147	13,41
566,488	13,39
566,829	13,34
567,17	13,3
567,511	13,24
567,851	13,21
568,192	13,17
568,533	13,09
568,874	13,05
569,214	12,97
569,555	12,88
569,895	12,85
570,236	12,82
570,576	12,77
570,917	12,71
571,257	12,66
571,598	12,6
571,938	12,54
572,278	12,5
572,618	12,45
572,959	12,41
573,299	12,36
573,639	12,31
573,979	12,26
574,319	12,21
574,659	12,21
574,999	12,14
575,339	12,08
575,678	12,05
576,018	11,99
576,358	11,97
576,698	11,93
577,037	11,91
577,377	11,86
577,716	11,83
578,056	11,83
578,395	11,82
578,735	11,78
579,074	11,76
579,413	11,7
579,753	11,69
580,092	11,64
580,431	11,63
580,77	11,62
581,109	11,57
581,448	11,52
581,787	11,47
582,126	11,45
582,465	11,43
582,804	11,42
583,143	11,46
583,482	11,41
583,82	11,37
584,159	11,34
584,498	11,31
584,836	11,3
585,175	11,24
585,514	11,16
585,852	11,15
586,19	11,11
586,529	11,09
586,867	11,06
587,205	11,04
587,544	11,03
587,882	10,99
588,22	10,95
588,558	10,95
588,896	10,95
589,234	10,94
589,572	10,94
589,91	10,92
590,248	10,82
590,586	10,82
590,924	10,81
591,262	10,82
591,599	10,79
591,937	10,78
592,275	10,78
592,612	10,79
592,95	10,75
593,287	10,79
593,625	10,77
593,962	10,73
594,299	10,73
594,637	10,71
594,974	10,7
595,311	10,72
595,648	10,71
595,985	10,67
596,322	10,64
596,659	10,68
596,996	10,66
597,333	10,66
597,67	10,65
598,007	10,64
598,344	10,62
598,681	10,67
599,017	10,6
599,354	10,59
599,691	10,58
600,027	10,61
600,364	10,57
600,7	10,59
601,037	10,6
601,373	10,56
601,71	10,54
602,046	10,55
602,382	10,5
602,718	10,49
603,054	10,48
603,391	10,49
603,727	10,44
604,063	10,47
604,399	10,45
604,735	10,45
605,071	10,43
605,406	10,42
605,742	10,36
606,078	10,39
606,414	10,34
606,749	10,31
607,085	10,25
607,421	10,23
607,756	10,19
608,092	10,14
608,427	10,13
608,762	10,09
609,098	10,04
609,433	10,02
609,768	10
610,104	9,99
610,439	9,95
610,774	9,94
611,109	9,83
611,444	9,81
611,779	9,79
612,114	9,76
612,449	9,73
612,784	9,67
613,118	9,62
613,453	9,62
613,788	9,62
614,123	9,57
614,457	9,56
614,792	9,57
615,126	9,53
615,461	9,49
615,795	9,5
616,13	9,52
616,464	9,52
616,798	9,49
617,132	9,47
617,467	9,45
617,801	9,4
618,135	9,41
618,469	9,41
618,803	9,4
619,137	9,41
619,471	9,41
619,805	9,39
620,139	9,38
620,472	9,36
620,806	9,35
621,14	9,34
621,473	9,33
621,807	9,3
622,141	9,33
622,474	9,28
622,808	9,24
623,141	9,18
623,474	9,15
623,808	9,13
624,141	9,11
624,474	9,13
624,807	9,1
625,141	9,11
625,474	9,11
625,807	9,08
626,14	9,04
626,473	9,02
626,806	9,04
627,138	9,07
627,471	9,06
627,804	9,06
628,137	9,11
628,469	9,05
628,802	9,06
629,135	9,04
629,467	9,08
629,8	9,09
630,132	9,07
630,465	9,09
630,797	9,11
631,129	9,11
631,461	9,1
631,794	9,15
632,126	9,1
632,458	9,07
632,79	9,08
633,122	9,1
633,454	9,1
633,786	9,07
634,118	9,03
634,45	9,04
634,781	9,05
635,113	8,99
635,445	8,97
635,777	8,96
636,108	8,95
636,44	8,95
636,771	8,94
637,103	8,93
637,434	8,87
637,765	8,84
638,097	8,92
638,428	8,85
638,759	8,79
639,09	8,81
639,422	8,81
639,753	8,81
640,084	8,75
640,415	8,71
640,746	8,71
641,077	8,67
641,407	8,6
641,738	8,57
642,069	8,51
642,4	8,5
642,73	8,46
643,061	8,43
643,392	8,39
643,722	8,33
644,053	8,34
644,383	8,33
644,713	8,28
645,044	8,16
645,374	8,16
645,704	8,15
646,034	8,13
646,365	8,11
646,695	8,11
647,025	8,12
647,355	8,1
647,685	8,05
648,015	8,04
648,344	8,05
648,674	8
649,004	8
649,334	8,02
649,663	8,03
649,993	8,02
650,323	8
650,652	8
650,982	7,99
651,311	7,98
651,64	7,99
651,97	7,96
652,299	7,94
652,628	7,89
652,958	7,86
653,287	7,89
653,616	7,79
653,945	7,73
654,274	7,72
654,603	7,7
654,932	7,68
655,261	7,66
655,589	7,65
655,918	7,6
656,247	7,55
656,576	7,5
656,904	7,48
657,233	7,47
657,561	7,44
657,89	7,43
658,218	7,41
658,547	7,36
658,875	7,35
659,203	7,31
659,532	7,3
659,86	7,31
660,188	7,23
660,516	7,25
660,844	7,24
661,172	7,22
661,5	7,19
661,828	7,18
662,156	7,15
662,484	7,14
662,811	7,14
663,139	7,11
663,467	7,06
663,794	7,02
664,122	6,97
664,45	6,94
664,777	6,92
665,104	6,92
665,432	6,88
665,759	6,82
666,086	6,83
666,414	6,78
666,741	6,73
667,068	6,7
667,395	6,65
667,722	6,64
668,049	6,64
668,376	6,63
668,703	6,61
669,03	6,62
669,357	6,59
669,683	6,6
670,01	6,62
670,337	6,63
670,663	6,63
670,99	6,61
671,317	6,58
671,643	6,56
671,969	6,53
672,296	6,56
672,622	6,62
672,948	6,61
673,275	6,63
673,601	6,63
673,927	6,68
674,253	6,73
674,579	6,72
674,905	6,71
675,231	6,72
675,557	6,72
675,883	6,74
676,209	6,8
676,534	6,81
676,86	6,81
677,186	6,84
677,511	6,87
677,837	6,9
678,162	6,91
678,488	6,93
678,813	6,96
679,139	7,03
679,464	7,05
679,789	7,04
680,114	7,07
680,44	7,11
680,765	7,14
681,09	7,18
681,415	7,22
681,74	7,29
682,065	7,37
682,39	7,42
682,714	7,48
683,039	7,48
683,364	7,56
683,689	7,58
684,013	7,6
684,338	7,62
684,662	7,7
684,987	7,82
685,311	7,9
685,636	7,94
685,96	7,95
686,284	8,03
686,608	8,17
686,933	8,29
687,257	8,39
687,581	8,49
687,905	8,55
688,229	8,62
688,553	8,69
688,877	8,73
689,201	8,8
689,524	8,88
689,848	9
690,172	9,06
690,496	9,2
690,819	9,33
691,143	9,48
691,466	9,63
691,79	9,74
692,113	9,89
692,436	10,02
692,76	10,18
693,083	10,32
693,406	10,42
693,729	10,55
694,053	10,72
694,376	10,88
694,699	11,04
695,022	11,2
695,344	11,36
695,667	11,59
695,99	11,82
696,313	11,96
696,636	12,13
696,958	12,36
697,281	12,56
697,604	12,77
697,926	12,94
698,249	13,2
698,571	13,33
698,893	13,48
699,216	13,65
699,538	13,85
699,86	14,02
700,182	14,23
700,504	14,41
700,827	14,6
701,149	14,81
701,471	15,11
701,793	15,38
702,114	15,72
702,436	16,01
702,758	16,36
703,08	16,78
703,401	17,12
703,723	17,42
704,045	17,74
704,366	18,08
704,688	18,39
705,009	18,57
705,331	18,95
705,652	19,22
705,973	19,47
706,294	19,73
706,616	20,02
706,937	20,3
707,258	20,55
707,579	20,85
707,9	21,1
708,221	21,37
708,542	21,7
708,863	21,91
709,183	22,25
709,504	22,52
709,825	22,74
710,145	23,08
710,466	23,36
710,787	23,66
711,107	23,92
711,427	24,25
711,748	24,64
712,068	24,96
712,388	25,34
712,709	25,71
713,029	26,16
713,349	26,54
713,669	26,86
713,989	27,24
714,309	27,61
714,629	28,01
714,949	28,39
715,269	28,71
715,589	29,14
715,908	29,52
716,228	29,96
716,548	30,42
716,867	30,73
717,187	31,17
717,506	31,56
717,826	32
718,145	32,34
718,465	32,6
718,784	33,02
719,103	33,41
719,422	33,91
719,741	34,27
720,061	34,66
720,38	35,09
720,699	35,52
721,018	35,81
721,336	36,14
721,655	36,6
721,974	37,03
722,293	37,5
722,612	37,87
722,93	38,23
723,249	38,57
723,567	39,01
723,886	39,39
724,204	39,88
724,523	40,12
724,841	40,48
725,159	41,05
725,477	41,33
725,796	41,7
726,114	41,96
726,432	42,23
726,75	42,49
727,068	42,83
727,386	43,19
727,704	43,71
728,022	44,11
728,339	44,34
728,657	44,67
728,975	45,07
729,292	45,54
729,61	45,89
729,928	46,16
730,245	46,41
730,562	46,79
730,88	47,11
731,197	47,57
731,514	47,99
731,832	48,16
732,149	48,41
732,466	48,88
732,783	49,19
733,1	49,67
733,417	50,17
733,734	50,54
734,051	50,92
734,368	51,15
734,684	51,44
735,001	51,85
735,318	52,19
735,634	52,34
735,951	52,56
736,268	52,82
736,584	53,26
736,9	53,61
737,217	53,98
737,533	54,24
737,849	54,48
738,166	54,73
738,482	55,05
738,798	55,62
739,114	55,72
739,43	56,02
739,746	56,12
740,062	56,24
740,378	56,45
740,693	56,63
741,009	56,92
741,325	57,23
741,641	57,33
741,956	57,55
742,272	57,78
742,587	57,97
742,903	58,17
743,218	58,39
743,533	58,73
743,849	58,82
744,164	58,97
744,479	59,19
744,794	59,47
745,109	59,62
745,424	59,59
745,739	59,72
746,054	59,79
746,369	59,78
746,684	60,01
746,999	60,05
747,313	60,13
747,628	60,16
747,943	60,23
748,257	60,45
748,572	60,63
748,886	60,94
749,201	61,01
749,515	61,22
749,829	61,32
750,144	61,25
750,458	61,5
750,772	61,61
751,086	61,74
751,4	61,59
751,714	61,68
752,028	61,79
752,342	62,05
752,656	62,23
752,97	62,5
753,284	62,54
753,597	62,65
753,911	62,84
754,225	62,89
754,538	62,84
754,852	62,86
755,165	62,85
755,478	62,76
755,792	62,81
756,105	62,72
756,418	62,83
756,731	62,9
757,045	62,77
757,358	62,82
757,671	62,93
757,984	63,07
758,297	63,17
758,609	63,12
758,922	63,06
759,235	63,12
759,548	63,16
759,86	63,14
760,173	63
760,486	62,95
760,798	63,01
761,111	62,95
761,423	62,85
761,735	62,82
762,048	62,76
762,36	62,77
762,672	62,74
762,984	62,6
763,296	62,69
763,608	62,69
763,92	62,65
764,232	62,58
764,544	62,73
764,856	62,57
765,168	62,57
765,48	62,47
765,791	62,52
766,103	62,54
766,414	62,55
766,726	62,74
767,037	62,8
767,349	62,79
767,66	63,01
767,972	63,22
768,283	63,47
768,594	63,53
768,905	63,81
769,216	64,24
769,527	64,43
769,838	64,55
770,149	64,59
770,46	64,74
770,771	64,9
771,082	64,77
771,393	65,22
771,703	65,43
772,014	65,77
772,324	65,56
772,635	65,53
772,945	65,4
773,256	65,56
773,566	65,35
773,877	65,41
774,187	65,4
774,497	65,33
774,807	65,29
775,117	65,5
775,427	65,27
775,737	65,02
776,047	65,32
776,357	65,21
776,667	65,1
776,977	64,95
777,287	64,68
777,596	64,57
777,906	64,33
778,216	64,14
778,525	63,87
778,835	63,83
779,144	63,98
779,453	64,07
779,763	63,86
780,072	64,03
780,381	63,96
780,69	63,9
781	63,96
781,309	63,8
781,618	63,69
781,927	63,77
782,235	63,82
782,544	63,43
782,853	63,53
783,162	63,52
783,471	63,63
783,779	63,74
784,088	63,59
784,396	63,67
784,705	63,27
785,013	63,4
785,322	63,48
785,63	63,3
785,938	63,61
786,246	63,76
786,554	63,86
786,863	64,15
787,171	64,22
787,479	64,24
787,787	64,51
788,094	64,37
788,402	64,4
788,71	64,82
789,018	65,06
789,326	65,05
789,633	65,14
789,941	65,35
790,248	65,47
790,556	65,86
790,863	65,72
791,171	66,12
791,478	65,86
791,785	65,67
792,092	65,61
792,399	65,24
792,707	65,19
793,014	65,2
793,321	65,14
793,628	65,26
793,934	64,92
794,241	64,82
794,548	64,97
794,855	64,68
795,161	64,17
795,468	63,68
795,775	63,6
796,081	63,64
796,388	63,47
796,694	63,3
797	63,09
797,307	63,15
797,613	63,02
797,919	63,17
798,225	63,52
798,531	63,64
798,837	63,75
799,143	63,81
799,449	63,68
799,755	63,46
800,061	63,32
800,367	63,59
800,672	63,48
800,978	63,44
801,284	63,72
801,589	63,65
801,895	63,67
802,2	63,76
802,506	63,65
802,811	63,49
803,116	63,83
803,421	63,68
803,727	63,69
804,032	63,8
804,337	63,82
804,642	63,9
804,947	63,58
805,252	63,48
805,556	63,1
805,861	63,17
806,166	63,17
806,471	63,09
806,775	63,11
807,08	63,53
807,384	63,54
807,689	63,61
807,993	63,53
808,298	63,83
808,602	64
808,906	64,07
809,211	64,45
809,515	64,28
809,819	64,6
810,123	64,55
810,427	64,5
810,731	64,45
811,035	64,39
811,338	65,1
811,642	65,42
811,946	65,87
812,25	65,73
812,553	65,93
812,857	65,92
813,16	65,58
813,464	65,03
813,767	65,01
814,07	64,96
814,374	65,22
814,677	65,23
814,98	65,37
815,283	65,59
815,586	65,28
815,889	65,38
816,192	65,64
816,495	65,71
816,798	65,83
817,101	66,19
817,404	66,07
817,706	65,73
818,009	65,85
818,312	65,57
818,614	65,49
818,917	64,88
819,219	64,42
819,521	64
819,824	63,53
820,126	63,17
820,428	62,88
820,73	62,83
821,032	62,98
821,334	62,75
821,636	62,73
821,938	62,8
822,24	62,79
822,542	62,79
822,844	62,85
823,145	62,9
823,447	62,85
823,749	62,96
824,05	62,93
824,352	62,97
824,653	62,92
824,955	62,88
825,256	62,96
825,557	62,99
825,858	63,08
826,16	63,25
826,461	63,4
826,762	63,68
827,063	63,83
827,364	63,72
827,665	63,92
827,965	64,1
828,266	64,2
828,567	64,25
828,868	64,37
829,168	64,43
829,469	64,42
829,769	64,4
830,07	64,1
830,37	64,07
830,67	63,75
830,971	64,09
831,271	64,31
831,571	64,54
831,871	64,83
832,171	65,01
832,471	64,78
832,771	64,96
833,071	64,72
833,371	64,64
833,671	64,52
833,971	64,7
834,27	64,22
834,57	64,09
834,869	64,25
835,169	64,21
835,468	64,09
835,768	64,07
836,067	64,2
836,367	64,36
836,666	64,53
836,965	64,7
837,264	64,59
837,563	64,65
837,862	64,67
838,161	64,82
838,46	65,14
838,759	65,84
839,058	66,12
839,356	66,4
839,655	66,54
839,954	67,33
840,252	67,56
840,551	68,57
840,849	69,17
841,148	69,19
841,446	68,87
841,744	69,18
842,043	69,23
842,341	69,81
842,639	70,04
842,937	69,79
843,235	69,9
843,533	70,07
843,831	70,33
844,129	69,93
844,427	69,23
844,724	69,08
845,022	68,74
845,32	68,22
845,617	68,97
845,915	69,05
846,212	68,66
846,51	67,89
846,807	66,83
847,104	65,26
847,402	64,47
847,699	63,88
847,996	63,74
848,293	64,12
848,59	63,44
848,887	63,67
849,184	64,69
849,481	63,9
849,778	63,74
850,074	62,71
850,371	63,01
850,668	63,92
850,964	63,98
851,261	64,73
851,557	65,51
851,854	64,67
852,15	65,22
852,446	65,58
852,743	65,92
853,039	66,16
853,335	67,49
853,631	67,88
853,927	68,95
854,223	68,81
854,519	68,89
854,815	68,94
855,111	67,42
855,406	66,27
855,702	67,4
855,998	66,96
856,293	66,98
856,589	66,83
856,884	67,2
857,18	67,54
857,475	66,18
857,77	64,59
858,066	64,19
858,361	63,47
858,656	63,28
858,951	63,95
859,246	64
859,541	63,25
859,836	63,14
860,131	62,54
860,426	61,42
860,72	61,37
861,015	61,45
861,31	62,86
861,604	63,39
861,899	62,49
862,193	62,75
862,487	62,87
862,782	63,13
863,076	62,46
863,37	60,67
863,664	60,6
863,959	61,22
864,253	61,85
864,547	62,47
864,841	61,67
865,135	61,8
865,428	62,36
865,722	63,18
866,016	64,81
866,31	65,63
866,603	66,62
866,897	65,81
867,19	65,64
867,484	63,83
867,777	63,36
868,07	65,62
868,364	65,37
868,657	65,4
868,95	66
869,243	66,13
869,536	66,19
869,829	65,48
870,122	65,64
870,415	65,03
870,708	63,39
871	63,94
871,293	62,1
871,586	62,04
871,878	61,73
872,171	60,31
872,463	60,52
872,756	60,22
873,048	60,71
873,341	60,23
873,633	61,36
873,925	62,01
874,217	60,47
874,509	60,73
874,801	61,28
875,093	60,37
875,385	59,86
875,677	61,63
875,969	63,64
