Data from palm_tumJ_d_45_90_Reflection_00001.txt Node
Date: Fri Feb 11 14:51:13 ART 2022
User: Nati
Spectrometer: USB2E3644
Trigger mode: 4
Integration Time (sec): 3,520000E-1
Scans to average: 10
Electric dark correction enabled: true
Nonlinearity correction enabled: false
Boxcar width: 10
XAxis mode: Wavelengths
Number of Pixels in Spectrum: 2048
>>>>>Begin Spectral Data<<<<<
178,315	-925
178,696	-158,06
179,076	-60,24
179,457	-170,59
179,838	-85
180,218	-65,57
180,599	200
180,979	89,29
181,36	47
181,74	-6,02
182,121	-91,18
182,501	-6100
182,881	-5500
183,262	363,64
183,642	-1000
184,022	-36,84
184,402	110
184,783	60,98
185,163	36,13
185,543	44,53
185,923	61,86
186,303	48,12
186,683	43,34
187,063	53,76
187,443	50,92
187,823	58,02
188,203	52,1
188,583	53,23
188,963	57,37
189,343	56,89
189,723	58,47
190,102	54,29
190,482	48,14
190,862	48,19
191,242	52,78
191,621	45,01
192,001	44,5
192,38	39,57
192,76	41,45
193,14	41,54
193,519	42,58
193,898	43,74
194,278	46,06
194,657	49,14
195,037	45,65
195,416	54,14
195,795	57,17
196,175	54,57
196,554	53,04
196,933	53,05
197,312	48,82
197,692	44,1
198,071	43,57
198,45	47,2
198,829	40,81
199,208	32,04
199,587	40,23
199,966	45,57
200,345	49,17
200,724	47,84
201,103	40,56
201,482	40,32
201,86	30,16
202,239	25,88
202,618	24,93
202,997	14,76
203,375	-24,48
203,754	-50,36
204,133	-29,62
204,511	-19,92
204,89	-18,86
205,269	-12,97
205,647	-12,69
206,026	-13,18
206,404	-8,36
206,782	4,46
207,161	11,05
207,539	0,29
207,918	-5,31
208,296	-18,92
208,674	-26,76
209,052	-15,41
209,431	-15,77
209,809	-13,88
210,187	-15,34
210,565	-28,16
210,943	-28,29
211,321	-18,36
211,699	-10,47
212,077	-15,45
212,455	-18,23
212,833	-18,45
213,211	-8,2
213,589	-2,4
213,967	-7,65
214,345	-23,36
214,722	-43,75
215,1	-65,14
215,478	-94,78
215,855	-101,38
216,233	-95,21
216,611	-92,11
216,988	-104,48
217,366	-126,87
217,743	-307,04
218,121	2023,08
218,498	885,71
218,876	537,5
219,253	493,02
219,631	1561,54
220,008	588,24
220,385	470
220,762	395,92
221,14	1086,36
221,517	1112
221,894	494,55
222,271	1515,38
222,648	-314,29
223,025	-170,91
223,402	-34,33
223,78	-10
224,157	2,17
224,533	7,14
224,91	17,79
225,287	26,05
225,664	31,11
226,041	37,42
226,418	42,28
226,795	45,93
227,171	46,1
227,548	46,06
227,925	46,03
228,301	45,51
228,678	43,94
229,055	43,56
229,431	42,06
229,808	45,2
230,184	39,79
230,561	39,06
230,937	41,83
231,313	41,03
231,69	38,65
232,066	32,79
232,442	30,59
232,819	28,36
233,195	24,06
233,571	21,12
233,947	22,57
234,323	17,79
234,699	10,63
235,075	14,96
235,451	10,93
235,827	11,84
236,203	16,82
236,579	17,28
236,955	18,19
237,331	18,64
237,707	18,3
238,083	19,8
238,459	18,44
238,834	16,07
239,21	13,46
239,586	11,01
239,961	11,79
240,337	11,33
240,713	11,81
241,088	11,45
241,464	12,47
241,839	13,67
242,215	14,06
242,59	14,9
242,965	15,38
243,341	14,96
243,716	15,08
244,091	13,96
244,467	13,79
244,842	14,11
245,217	14,4
245,592	13,46
245,967	12,85
246,343	12,55
246,718	12,55
247,093	12,28
247,468	12,5
247,843	12,3
248,218	12,29
248,593	12,08
248,967	11,83
249,342	11,59
249,717	11,01
250,092	11,21
250,467	10,95
250,841	10,04
251,216	10,39
251,591	8,98
251,965	7,67
252,34	7,63
252,714	7,43
253,089	7,44
253,463	9,13
253,838	9,63
254,212	10,41
254,587	10,49
254,961	11,32
255,335	10,94
255,71	11,38
256,084	11,84
256,458	11,66
256,832	12,34
257,206	13,18
257,581	12,94
257,955	12,79
258,329	12,47
258,703	12,37
259,077	12,3
259,451	13,24
259,825	14,33
260,199	14,42
260,572	14,12
260,946	13,66
261,32	12,9
261,694	12,36
262,068	12,2
262,441	12,38
262,815	12,22
263,189	12,66
263,562	12,66
263,936	12,4
264,309	12,11
264,683	11,86
265,056	11,09
265,43	10,89
265,803	10,97
266,176	11,66
266,55	11,62
266,923	11,02
267,296	10,63
267,67	9,96
268,043	9,36
268,416	9,54
268,789	9,85
269,162	9,84
269,535	10,62
269,908	11,14
270,281	11,44
270,654	11,72
271,027	11,96
271,4	11,79
271,773	11,71
272,146	11,87
272,519	11,78
272,891	11,71
273,264	11,93
273,637	12,11
274,01	11,77
274,382	11,91
274,755	12,52
275,127	12,71
275,5	12,71
275,872	13,18
276,245	13,2
276,617	13,09
276,99	13,14
277,362	12,97
277,734	12,46
278,107	11,95
278,479	11,82
278,851	11,55
279,223	11,99
279,596	12,23
279,968	12,45
280,34	12,74
280,712	13,2
281,084	13,17
281,456	13,37
281,828	13,71
282,2	13,48
282,572	13,16
282,944	12,83
283,315	12,59
283,687	12,52
284,059	12,57
284,431	12,58
284,802	12,79
285,174	12,89
285,546	12,87
285,917	12,97
286,289	12,85
286,66	12,69
287,032	12,62
287,403	12,32
287,775	12,1
288,146	11,71
288,518	11,44
288,889	11,24
289,26	10,85
289,632	10,48
290,003	10,6
290,374	10,3
290,745	10,17
291,116	10,38
291,487	10,51
291,858	10,45
292,229	10,26
292,6	9,7
292,971	9,78
293,342	10,02
293,713	9,9
294,084	9,94
294,455	9,73
294,826	9,47
295,196	9,63
295,567	9,62
295,938	9,97
296,308	10,25
296,679	10,43
297,05	10,48
297,42	10,43
297,791	10,48
298,161	10,98
298,532	11,12
298,902	11,13
299,272	10,99
299,643	10,81
300,013	10,97
300,383	11,48
300,754	11,41
301,124	11,43
301,494	11,61
301,864	11,79
302,234	11,91
302,604	11,41
302,974	11,33
303,344	11,39
303,714	11,33
304,084	10,95
304,454	10,98
304,824	11,05
305,194	11,2
305,563	11,19
305,933	11,03
306,303	10,96
306,673	11,08
307,042	11,04
307,412	11,09
307,781	10,93
308,151	10,78
308,521	10,57
308,89	10,32
309,259	10,16
309,629	9,88
309,998	9,93
310,368	10,07
310,737	9,97
311,106	9,88
311,475	9,84
311,845	9,86
312,214	9,65
312,583	9,58
312,952	9,39
313,321	9,04
313,69	8,93
314,059	8,75
314,428	8,54
314,797	8,37
315,166	8,23
315,535	7,98
315,904	7,81
316,272	7,61
316,641	7,55
317,01	7,56
317,379	7,77
317,747	7,9
318,116	8,11
318,484	8,28
318,853	8,43
319,221	8,35
319,59	8,42
319,958	8,79
320,327	8,82
320,695	8,81
321,063	9
321,432	8,98
321,8	9,11
322,168	9,36
322,536	9,76
322,905	9,99
323,273	10,03
323,641	10,1
324,009	10,33
324,377	10,34
324,745	10,25
325,113	10,19
325,481	10,01
325,849	9,94
326,216	9,9
326,584	9,74
326,952	9,62
327,32	9,42
327,687	9,22
328,055	9,2
328,423	9,45
328,79	9,64
329,158	9,6
329,525	9,51
329,893	9,21
330,26	9,09
330,628	9,12
330,995	9,26
331,362	9,16
331,73	9,06
332,097	9,11
332,464	9,16
332,831	9,1
333,199	9,13
333,566	9,33
333,933	9,42
334,3	9,35
334,667	9,24
335,034	9,16
335,401	9,1
335,768	9,12
336,135	9
336,502	8,82
336,868	8,85
337,235	8,91
337,602	8,88
337,969	8,74
338,335	8,55
338,702	8,49
339,069	8,47
339,435	8,5
339,802	8,51
340,168	8,6
340,535	8,55
340,901	8,46
341,267	8,34
341,634	8,31
342	8,42
342,366	8,55
342,733	8,64
343,099	8,68
343,465	8,65
343,831	8,59
344,197	8,6
344,563	8,58
344,929	8,55
345,295	8,64
345,661	8,7
346,027	8,8
346,393	8,79
346,759	8,82
347,125	8,78
347,491	8,7
347,856	8,59
348,222	8,54
348,588	8,55
348,953	8,6
349,319	8,59
349,684	8,56
350,05	8,56
350,415	8,62
350,781	8,66
351,146	8,58
351,512	8,69
351,877	8,72
352,242	8,72
352,608	8,69
352,973	8,6
353,338	8,55
353,703	8,47
354,068	8,45
354,433	8,47
354,798	8,48
355,164	8,54
355,528	8,65
355,893	8,76
356,258	8,83
356,623	8,79
356,988	8,79
357,353	8,76
357,718	8,68
358,082	8,57
358,447	8,53
358,812	8,53
359,176	8,55
359,541	8,55
359,905	8,49
360,27	8,49
360,634	8,54
360,999	8,52
361,363	8,56
361,728	8,57
362,092	8,62
362,456	8,63
362,821	8,62
363,185	8,57
363,549	8,59
363,913	8,54
364,277	8,53
364,641	8,49
365,005	8,49
365,369	8,62
365,733	8,71
366,097	8,7
366,461	8,75
366,825	8,64
367,189	8,57
367,553	8,67
367,916	8,74
368,28	8,72
368,644	8,74
369,007	8,71
369,371	8,7
369,734	8,62
370,098	8,61
370,461	8,58
370,825	8,54
371,188	8,5
371,552	8,49
371,915	8,53
372,278	8,57
372,642	8,58
373,005	8,53
373,368	8,5
373,731	8,46
374,094	8,43
374,457	8,39
374,82	8,42
375,183	8,36
375,546	8,26
375,909	8,28
376,272	8,29
376,635	8,33
376,998	8,39
377,361	8,42
377,723	8,4
378,086	8,46
378,449	8,47
378,811	8,46
379,174	8,44
379,537	8,4
379,899	8,32
380,262	8,32
380,624	8,27
380,987	8,23
381,349	8,25
381,711	8,26
382,074	8,28
382,436	8,24
382,798	8,33
383,16	8,28
383,522	8,25
383,884	8,21
384,247	8,21
384,609	8,12
384,971	8,1
385,333	8,08
385,695	8,03
386,056	8,03
386,418	8,02
386,78	8,11
387,142	8,12
387,504	8,14
387,865	8,14
388,227	8,17
388,589	8,22
388,95	8,25
389,312	8,24
389,673	8,29
390,035	8,32
390,396	8,24
390,758	8,32
391,119	8,37
391,48	8,36
391,842	8,36
392,203	8,38
392,564	8,41
392,925	8,44
393,286	8,43
393,648	8,46
394,009	8,47
394,37	8,42
394,731	8,39
395,092	8,38
395,452	8,36
395,813	8,33
396,174	8,33
396,535	8,3
396,896	8,31
397,257	8,28
397,617	8,28
397,978	8,36
398,338	8,34
398,699	8,32
399,06	8,4
399,42	8,35
399,781	8,37
400,141	8,35
400,501	8,36
400,862	8,42
401,222	8,42
401,582	8,44
401,943	8,45
402,303	8,47
402,663	8,51
403,023	8,54
403,383	8,58
403,743	8,59
404,103	8,65
404,463	8,66
404,823	8,69
405,183	8,7
405,543	8,69
405,903	8,72
406,262	8,72
406,622	8,7
406,982	8,78
407,342	8,78
407,701	8,8
408,061	8,81
408,42	8,82
408,78	8,82
409,139	8,84
409,499	8,88
409,858	8,95
410,217	8,98
410,577	9
410,936	9,04
411,295	9,05
411,655	9,04
412,014	9,09
412,373	9,13
412,732	9,15
413,091	9,17
413,45	9,22
413,809	9,25
414,168	9,28
414,527	9,28
414,886	9,36
415,245	9,4
415,603	9,45
415,962	9,46
416,321	9,49
416,679	9,52
417,038	9,55
417,397	9,58
417,755	9,62
418,114	9,65
418,472	9,67
418,831	9,71
419,189	9,75
419,547	9,78
419,906	9,82
420,264	9,85
420,622	9,89
420,981	9,92
421,339	9,95
421,697	9,97
422,055	10
422,413	10,03
422,771	10,06
423,129	10,09
423,487	10,13
423,845	10,18
424,203	10,2
424,56	10,24
424,918	10,27
425,276	10,32
425,634	10,36
425,991	10,42
426,349	10,44
426,707	10,47
427,064	10,48
427,422	10,52
427,779	10,57
428,137	10,6
428,494	10,66
428,851	10,73
429,209	10,8
429,566	10,86
429,923	10,89
430,28	10,92
430,637	10,99
430,995	11,01
431,352	11,05
431,709	11,08
432,066	11,11
432,423	11,11
432,78	11,14
433,137	11,16
433,493	11,2
433,85	11,29
434,207	11,29
434,564	11,34
434,92	11,35
435,277	11,36
435,634	11,38
435,99	11,42
436,347	11,44
436,703	11,49
437,06	11,52
437,416	11,56
437,773	11,57
438,129	11,55
438,485	11,58
438,841	11,56
439,198	11,59
439,554	11,63
439,91	11,66
440,266	11,67
440,622	11,69
440,978	11,68
441,334	11,67
441,69	11,71
442,046	11,73
442,402	11,77
442,758	11,78
443,113	11,8
443,469	11,82
443,825	11,85
444,181	11,87
444,536	11,9
444,892	11,92
445,247	11,96
445,603	12,01
445,958	12,02
446,314	12,06
446,669	12,09
447,025	12,11
447,38	12,14
447,735	12,16
448,09	12,18
448,446	12,23
448,801	12,26
449,156	12,29
449,511	12,32
449,866	12,35
450,221	12,41
450,576	12,47
450,931	12,49
451,286	12,53
451,641	12,54
451,995	12,57
452,35	12,61
452,705	12,63
453,06	12,65
453,414	12,68
453,769	12,69
454,123	12,7
454,478	12,71
454,832	12,74
455,187	12,74
455,541	12,76
455,896	12,77
456,25	12,77
456,604	12,78
456,958	12,79
457,313	12,8
457,667	12,81
458,021	12,81
458,375	12,83
458,729	12,84
459,083	12,85
459,437	12,84
459,791	12,84
460,145	12,86
460,499	12,87
460,852	12,88
461,206	12,91
461,56	12,92
461,914	12,92
462,267	12,91
462,621	12,94
462,974	12,94
463,328	12,95
463,681	12,96
464,035	12,98
464,388	12,99
464,742	12,99
465,095	13,02
465,448	13,04
465,801	13,05
466,155	13,08
466,508	13,09
466,861	13,09
467,214	13,11
467,567	13,11
467,92	13,12
468,273	13,1
468,626	13,1
468,979	13,12
469,332	13,11
469,684	13,12
470,037	13,14
470,39	13,14
470,743	13,14
471,095	13,17
471,448	13,19
471,8	13,2
472,153	13,21
472,505	13,2
472,858	13,19
473,21	13,19
473,562	13,19
473,915	13,21
474,267	13,24
474,619	13,24
474,971	13,23
475,324	13,24
475,676	13,29
476,028	13,28
476,38	13,27
476,732	13,29
477,084	13,29
477,436	13,27
477,787	13,28
478,139	13,29
478,491	13,29
478,843	13,26
479,195	13,29
479,546	13,27
479,898	13,3
480,249	13,31
480,601	13,33
480,952	13,32
481,304	13,32
481,655	13,3
482,007	13,29
482,358	13,28
482,709	13,28
483,061	13,26
483,412	13,26
483,763	13,24
484,114	13,24
484,465	13,24
484,816	13,25
485,167	13,25
485,518	13,25
485,869	13,25
486,22	13,26
486,571	13,25
486,922	13,26
487,272	13,25
487,623	13,25
487,974	13,25
488,324	13,25
488,675	13,26
489,025	13,28
489,376	13,3
489,726	13,33
490,077	13,35
490,427	13,37
490,778	13,39
491,128	13,42
491,478	13,44
491,828	13,48
492,179	13,47
492,529	13,51
492,879	13,53
493,229	13,56
493,579	13,58
493,929	13,61
494,279	13,62
494,629	13,64
494,979	13,66
495,328	13,69
495,678	13,74
496,028	13,77
496,378	13,81
496,727	13,86
497,077	13,89
497,426	13,95
497,776	13,97
498,125	14,02
498,475	14,07
498,824	14,12
499,174	14,15
499,523	14,2
499,872	14,25
500,221	14,31
500,571	14,37
500,92	14,44
501,269	14,52
501,618	14,61
501,967	14,67
502,316	14,74
502,665	14,81
503,014	14,87
503,363	14,98
503,711	15,06
504,06	15,13
504,409	15,2
504,758	15,25
505,106	15,33
505,455	15,39
505,803	15,46
506,152	15,53
506,5	15,6
506,849	15,68
507,197	15,75
507,546	15,84
507,894	15,91
508,242	16
508,59	16,07
508,939	16,14
509,287	16,24
509,635	16,33
509,983	16,41
510,331	16,49
510,679	16,55
511,027	16,61
511,375	16,7
511,723	16,79
512,07	16,89
512,418	17,01
512,766	17,13
513,114	17,24
513,461	17,35
513,809	17,47
514,156	17,58
514,504	17,71
514,851	17,82
515,199	17,95
515,546	18,07
515,893	18,19
516,241	18,32
516,588	18,43
516,935	18,56
517,282	18,65
517,63	18,77
517,977	18,89
518,324	19,01
518,671	19,11
519,018	19,22
519,365	19,32
519,711	19,39
520,058	19,48
520,405	19,57
520,752	19,65
521,099	19,77
521,445	19,88
521,792	20,01
522,138	20,15
522,485	20,27
522,832	20,41
523,178	20,55
523,524	20,66
523,871	20,78
524,217	20,87
524,563	21,01
524,91	21,15
525,256	21,31
525,602	21,45
525,948	21,54
526,294	21,6
526,64	21,64
526,986	21,7
527,332	21,73
527,678	21,78
528,024	21,85
528,37	21,91
528,716	21,93
529,061	21,99
529,407	22,06
529,753	22,13
530,098	22,19
530,444	22,23
530,789	22,28
531,135	22,31
531,48	22,35
531,826	22,39
532,171	22,43
532,516	22,47
532,862	22,51
533,207	22,56
533,552	22,62
533,897	22,7
534,242	22,74
534,587	22,81
534,932	22,87
535,277	22,89
535,622	22,89
535,967	22,95
536,312	22,96
536,657	22,98
537,001	23
537,346	23,03
537,691	23,09
538,035	23,14
538,38	23,21
538,724	23,24
539,069	23,28
539,413	23,3
539,758	23,31
540,102	23,33
540,446	23,35
540,791	23,37
541,135	23,38
541,479	23,38
541,823	23,39
542,167	23,39
542,512	23,43
542,856	23,45
543,2	23,46
543,543	23,47
543,887	23,49
544,231	23,52
544,575	23,52
544,919	23,54
545,262	23,58
545,606	23,58
545,95	23,6
546,293	23,63
546,637	23,66
546,98	23,71
547,324	23,73
547,667	23,79
548,011	23,8
548,354	23,83
548,697	23,88
549,04	23,9
549,384	23,89
549,727	23,86
550,07	23,9
550,413	23,9
550,756	23,93
551,099	23,96
551,442	23,97
551,785	24,03
552,128	24,04
552,47	24,03
552,813	24,06
553,156	24,07
553,499	24,06
553,841	24,08
554,184	24,09
554,526	24,09
554,869	24,07
555,211	24,09
555,554	24,1
555,896	24,09
556,238	24,09
556,581	24,12
556,923	24,13
557,265	24,12
557,607	24,1
557,949	24,11
558,291	24,09
558,633	24,07
558,975	24,04
559,317	24,02
559,659	23,97
560,001	23,93
560,343	23,93
560,685	23,91
561,026	23,85
561,368	23,82
561,71	23,76
562,051	23,69
562,393	23,66
562,734	23,59
563,076	23,52
563,417	23,47
563,759	23,42
564,1	23,38
564,441	23,34
564,782	23,31
565,124	23,25
565,465	23,2
565,806	23,15
566,147	23,08
566,488	23,03
566,829	23,03
567,17	23
567,511	22,93
567,851	22,88
568,192	22,83
568,533	22,75
568,874	22,73
569,214	22,66
569,555	22,59
569,895	22,55
570,236	22,51
570,576	22,46
570,917	22,39
571,257	22,32
571,598	22,25
571,938	22,17
572,278	22,11
572,618	22,05
572,959	21,99
573,299	21,92
573,639	21,89
573,979	21,83
574,319	21,77
574,659	21,72
574,999	21,68
575,339	21,64
575,678	21,61
576,018	21,55
576,358	21,5
576,698	21,44
577,037	21,38
577,377	21,35
577,716	21,32
578,056	21,29
578,395	21,24
578,735	21,21
579,074	21,17
579,413	21,15
579,753	21,11
580,092	21,05
580,431	21,02
580,77	21,01
581,109	20,96
581,448	20,93
581,787	20,87
582,126	20,78
582,465	20,72
582,804	20,67
583,143	20,67
583,482	20,63
583,82	20,59
584,159	20,57
584,498	20,5
584,836	20,46
585,175	20,42
585,514	20,4
585,852	20,39
586,19	20,38
586,529	20,34
586,867	20,31
587,205	20,31
587,544	20,31
587,882	20,26
588,22	20,19
588,558	20,17
588,896	20,16
589,234	20,19
589,572	20,2
589,91	20,18
590,248	20,12
590,586	20,12
590,924	20,11
591,262	20,1
591,599	20,09
591,937	20,06
592,275	20,03
592,612	20,03
592,95	19,96
593,287	19,96
593,625	19,91
593,962	19,89
594,299	19,84
594,637	19,8
594,974	19,76
595,311	19,79
595,648	19,77
595,985	19,77
596,322	19,76
596,659	19,77
596,996	19,74
597,333	19,71
597,67	19,72
598,007	19,7
598,344	19,67
598,681	19,71
599,017	19,66
599,354	19,64
599,691	19,62
600,027	19,64
600,364	19,58
600,7	19,59
601,037	19,57
601,373	19,57
601,71	19,56
602,046	19,58
602,382	19,52
602,718	19,5
603,054	19,45
603,391	19,41
603,727	19,36
604,063	19,37
604,399	19,34
604,735	19,3
605,071	19,27
605,406	19,27
605,742	19,2
606,078	19,21
606,414	19,16
606,749	19,11
607,085	19,09
607,421	19,07
607,756	19,02
608,092	18,98
608,427	18,93
608,762	18,91
609,098	18,85
609,433	18,83
609,768	18,8
610,104	18,79
610,439	18,76
610,774	18,77
611,109	18,68
611,444	18,69
611,779	18,7
612,114	18,68
612,449	18,62
612,784	18,61
613,118	18,55
613,453	18,56
613,788	18,5
614,123	18,45
614,457	18,44
614,792	18,44
615,126	18,42
615,461	18,38
615,795	18,36
616,13	18,3
616,464	18,29
616,798	18,27
617,132	18,24
617,467	18,19
617,801	18,13
618,135	18,15
618,469	18,11
618,803	18,05
619,137	18,06
619,471	18,05
619,805	17,98
620,139	18,01
620,472	17,98
620,806	17,98
621,14	17,91
621,473	17,87
621,807	17,84
622,141	17,82
622,474	17,77
622,808	17,76
623,141	17,76
623,474	17,69
623,808	17,65
624,141	17,63
624,474	17,6
624,807	17,56
625,141	17,52
625,474	17,53
625,807	17,51
626,14	17,48
626,473	17,46
626,806	17,52
627,138	17,48
627,471	17,47
627,804	17,47
628,137	17,52
628,469	17,49
628,802	17,49
629,135	17,48
629,467	17,48
629,8	17,43
630,132	17,44
630,465	17,48
630,797	17,5
631,129	17,46
631,461	17,48
631,794	17,54
632,126	17,49
632,458	17,45
632,79	17,45
633,122	17,46
633,454	17,42
633,786	17,36
634,118	17,34
634,45	17,34
634,781	17,33
635,113	17,32
635,445	17,3
635,777	17,29
636,108	17,23
636,44	17,25
636,771	17,27
637,103	17,19
637,434	17,17
637,765	17,1
638,097	17,15
638,428	17,08
638,759	16,95
639,09	16,97
639,422	16,96
639,753	16,95
640,084	16,84
640,415	16,83
640,746	16,86
641,077	16,8
641,407	16,73
641,738	16,69
642,069	16,61
642,4	16,59
642,73	16,55
643,061	16,54
643,392	16,49
643,722	16,44
644,053	16,47
644,383	16,41
644,713	16,37
645,044	16,26
645,374	16,26
645,704	16,27
646,034	16,2
646,365	16,14
646,695	16,13
647,025	16,12
647,355	16,04
647,685	15,9
648,015	15,9
648,344	15,93
648,674	15,86
649,004	15,8
649,334	15,75
649,663	15,68
649,993	15,64
650,323	15,61
650,652	15,54
650,982	15,48
651,311	15,45
651,64	15,42
651,97	15,4
652,299	15,31
652,628	15,26
652,958	15,26
653,287	15,32
653,616	15,2
653,945	15,14
654,274	15,16
654,603	15,13
654,932	15,04
655,261	14,95
655,589	14,94
655,918	14,9
656,247	14,85
656,576	14,84
656,904	14,75
657,233	14,74
657,561	14,67
657,89	14,6
658,218	14,51
658,547	14,41
658,875	14,37
659,203	14,35
659,532	14,31
659,86	14,21
660,188	14,07
660,516	14,05
660,844	14
661,172	13,96
661,5	13,9
661,828	13,86
662,156	13,85
662,484	13,78
662,811	13,72
663,139	13,7
663,467	13,61
663,794	13,56
664,122	13,46
664,45	13,44
664,777	13,42
665,104	13,43
665,432	13,36
665,759	13,27
666,086	13,26
666,414	13,18
666,741	13,18
667,068	13,16
667,395	13,1
667,722	13,09
668,049	13,02
668,376	12,98
668,703	12,97
669,03	12,93
669,357	12,91
669,683	12,86
670,01	12,82
670,337	12,76
670,663	12,75
670,99	12,72
671,317	12,67
671,643	12,63
671,969	12,54
672,296	12,59
672,622	12,62
672,948	12,59
673,275	12,61
673,601	12,58
673,927	12,55
674,253	12,58
674,579	12,56
674,905	12,54
675,231	12,53
675,557	12,49
675,883	12,47
676,209	12,42
676,534	12,38
676,86	12,28
677,186	12,33
677,511	12,34
677,837	12,35
678,162	12,37
678,488	12,41
678,813	12,51
679,139	12,54
679,464	12,51
679,789	12,53
680,114	12,54
680,44	12,57
680,765	12,59
681,09	12,63
681,415	12,66
681,74	12,74
682,065	12,83
682,39	12,91
682,714	13
683,039	13,07
683,364	13,22
683,689	13,34
684,013	13,41
684,338	13,51
684,662	13,64
684,987	13,72
685,311	13,83
685,636	13,84
685,96	13,91
686,284	14,07
686,608	14,2
686,933	14,36
687,257	14,54
687,581	14,73
687,905	14,8
688,229	14,95
688,553	15,07
688,877	15,22
689,201	15,36
689,524	15,57
689,848	15,79
690,172	15,94
690,496	16,19
690,819	16,42
691,143	16,65
691,466	16,85
691,79	17,14
692,113	17,4
692,436	17,58
692,76	17,9
693,083	18,12
693,406	18,41
693,729	18,66
694,053	18,89
694,376	19,17
694,699	19,48
695,022	19,79
695,344	20,16
695,667	20,53
695,99	20,89
696,313	21,09
696,636	21,35
696,958	21,65
697,281	21,89
697,604	22,1
697,926	22,29
698,249	22,64
698,571	22,78
698,893	22,95
699,216	23,25
699,538	23,44
699,86	23,69
700,182	23,91
700,504	24,1
700,827	24,32
701,149	24,51
701,471	24,82
701,793	25,12
702,114	25,45
702,436	25,76
702,758	26,1
703,08	26,55
703,401	26,89
703,723	27,26
704,045	27,64
704,366	28,03
704,688	28,47
705,009	28,63
705,331	29,09
705,652	29,44
705,973	29,81
706,294	30,17
706,616	30,46
706,937	30,72
707,258	31,04
707,579	31,41
707,9	31,75
708,221	32,04
708,542	32,36
708,863	32,56
709,183	32,81
709,504	33,08
709,825	33,36
710,145	33,65
710,466	33,91
710,787	34,17
711,107	34,45
711,427	34,62
711,748	34,88
712,068	35,17
712,388	35,47
712,709	35,72
713,029	36,02
713,349	36,31
713,669	36,61
713,989	36,92
714,309	37,21
714,629	37,49
714,949	37,85
715,269	38,17
715,589	38,51
715,908	38,85
716,228	39,14
716,548	39,39
716,867	39,74
717,187	40,02
717,506	40,38
717,826	40,7
718,145	41,12
718,465	41,5
718,784	41,77
719,103	42,08
719,422	42,5
719,741	42,82
720,061	43,26
720,38	43,7
720,699	44,1
721,018	44,51
721,336	44,88
721,655	45,13
721,974	45,46
722,293	45,78
722,612	46,21
722,93	46,54
723,249	46,83
723,567	47,29
723,886	47,64
724,204	48,06
724,523	48,45
724,841	48,77
725,159	49,11
725,477	49,4
725,796	49,76
726,114	50,05
726,432	50,35
726,75	50,45
727,068	50,63
727,386	50,94
727,704	51,28
728,022	51,67
728,339	51,9
728,657	52,19
728,975	52,56
729,292	52,81
729,61	53,16
729,928	53,47
730,245	53,67
730,562	53,97
730,88	54,15
731,197	54,34
731,514	54,6
731,832	54,9
732,149	55,23
732,466	55,38
732,783	55,66
733,1	55,91
733,417	56,32
733,734	56,62
734,051	56,86
734,368	57
734,684	57,23
735,001	57,6
735,318	57,83
735,634	58,13
735,951	58,44
736,268	58,63
736,584	58,9
736,9	59,17
737,217	59,39
737,533	59,66
737,849	59,85
738,166	60,17
738,482	60,36
738,798	60,57
739,114	61,01
739,43	61,13
739,746	61,32
740,062	61,4
740,378	61,64
740,693	61,82
741,009	62,05
741,325	62,18
741,641	62,49
741,956	62,78
742,272	62,88
742,587	63,01
742,903	63,14
743,218	63,35
743,533	63,52
743,849	63,8
744,164	63,94
744,479	64,23
744,794	64,25
745,109	64,4
745,424	64,46
745,739	64,49
746,054	64,75
746,369	64,91
746,684	65,09
746,999	65,16
747,313	65,24
747,628	65,28
747,943	65,34
748,257	65,38
748,572	65,47
748,886	65,45
749,201	65,6
749,515	65,91
749,829	66,09
750,144	66,13
750,458	66,11
750,772	66,21
751,086	66,45
751,4	66,55
751,714	66,7
752,028	66,73
752,342	66,8
752,656	66,68
752,97	66,75
753,284	66,92
753,597	67,06
753,911	67,27
754,225	67,46
754,538	67,56
754,852	67,51
755,165	67,43
755,478	67,46
755,792	67,34
756,105	67,29
756,418	67,31
756,731	67,54
757,045	67,7
757,358	67,67
757,671	67,64
757,984	67,65
758,297	67,72
758,609	67,95
758,922	68,09
759,235	68,31
759,548	68,38
759,86	68,22
760,173	68,45
760,486	68,52
760,798	68,54
761,111	68,64
761,423	68,64
761,735	68,8
762,048	68,94
762,36	69,01
762,672	68,99
762,984	69,07
763,296	69,09
763,608	69,01
763,92	69,07
764,232	68,9
764,544	68,91
764,856	68,74
765,168	68,53
765,48	68,51
765,791	68,59
766,103	68,59
766,414	68,66
766,726	68,47
767,037	68,25
767,349	68,24
767,66	68,15
767,972	68,18
768,283	67,92
768,594	67,78
768,905	67,78
769,216	67,94
769,527	67,82
769,838	67,56
770,149	67,57
770,46	67,55
770,771	67,91
771,082	68,03
771,393	68,18
771,703	68,41
772,014	68,1
772,324	67,91
772,635	67,97
772,945	67,94
773,256	67,94
773,566	68,33
773,877	68,38
774,187	68,19
774,497	68,18
774,807	68,45
775,117	68,66
775,427	68,52
775,737	68,24
776,047	68,09
776,357	68,03
776,667	68,16
776,977	68,19
777,287	67,78
777,596	67,77
777,906	67,8
778,216	68
778,525	68,38
778,835	68,36
779,144	67,83
779,453	68
779,763	68,27
780,072	67,95
780,381	67,83
780,69	68,31
781	68,32
781,309	68,39
781,618	68,16
781,927	68,4
782,235	68,77
782,544	68,96
782,853	69,29
783,162	69,09
783,471	69,19
783,779	69,49
784,088	69,78
784,396	69,88
784,705	69,8
785,013	69,55
785,322	69,85
785,63	70,33
785,938	70,1
786,246	69,9
786,554	70,15
786,863	70
787,171	69,51
787,479	69,59
787,787	69,35
788,094	69,45
788,402	69,37
788,71	69,15
789,018	69,24
789,326	69,19
789,633	69,54
789,941	69,46
790,248	69,08
790,556	68,74
790,863	68,54
791,171	68,56
791,478	68,77
791,785	68,41
792,092	68,15
792,399	68,28
792,707	68,65
793,014	68,59
793,321	68,69
793,628	69
793,934	68,76
794,241	68,67
794,548	68,84
794,855	68,83
795,161	69,04
795,468	69,15
795,775	69,13
796,081	68,57
796,388	68,57
796,694	68,89
797	69,38
797,307	69,31
797,613	69,28
797,919	69,37
798,225	69,34
798,531	69,47
798,837	69,64
799,143	69,12
799,449	68,98
799,755	68,95
800,061	68,65
800,367	68,76
800,672	69,02
800,978	69,09
801,284	69,14
801,589	69,06
801,895	68,53
802,2	68,41
802,506	68,84
802,811	68,88
803,116	68,77
803,421	68,52
803,727	68,75
804,032	68,71
804,337	68,63
804,642	68,59
804,947	68,85
805,252	68,58
805,556	68,66
805,861	69,06
806,166	69,26
806,471	69,34
806,775	69,02
807,08	69,08
807,384	69,06
807,689	68,82
807,993	68,52
808,298	68,87
808,602	69,08
808,906	68,72
809,211	68,63
809,515	68,95
809,819	68,78
810,123	68,54
810,427	68,36
810,731	68,31
811,035	68,51
811,338	68,5
811,642	68,31
811,946	68,26
812,25	67,56
812,553	67,56
812,857	67,61
813,16	68,11
813,464	68,24
813,767	68,12
814,07	68,17
814,374	67,92
814,677	67,69
814,98	67,35
815,283	67,86
815,586	68,51
815,889	68,28
816,192	68,22
816,495	68,35
816,798	68,67
817,101	68,76
817,404	68,84
817,706	68,8
818,009	69,17
818,312	69,36
818,614	69,62
818,917	69,59
819,219	69,79
819,521	70,02
819,824	69,77
820,126	69,68
820,428	69,58
820,73	69,62
821,032	69,53
821,334	69,56
821,636	69,54
821,938	69,44
822,24	69,39
822,542	69,34
822,844	69,34
823,145	69,3
823,447	69,3
823,749	69,31
824,05	69,43
824,352	69,48
824,653	69,52
824,955	69,56
825,256	69,51
825,557	69,44
825,858	69,27
826,16	69,32
826,461	69,25
826,762	69,26
827,063	69,28
827,364	69,39
827,665	69,32
827,965	69,17
828,266	69,21
828,567	69,25
828,868	69,44
829,168	69,52
829,469	69,51
829,769	69,51
830,07	69,43
830,37	69,07
830,67	68,83
830,971	68,57
831,271	68,19
831,571	68,35
831,871	68,28
832,171	68,32
832,471	68,07
832,771	68,39
833,071	68,58
833,371	68,32
833,671	68,41
833,971	68,41
834,27	68,57
834,57	68,39
834,869	68,18
835,169	68
835,468	67,84
835,768	67,66
836,067	67,4
836,367	67,42
836,666	67,72
836,965	67,96
837,264	67,93
837,563	68,28
837,862	68,07
838,161	68,48
838,46	68,71
838,759	68,99
839,058	68,81
839,356	68,8
839,655	69,51
839,954	69,47
840,252	69,96
840,551	70,03
840,849	70,19
841,148	70,86
841,446	70,61
841,744	70,97
842,043	71,44
842,341	71,72
842,639	71,56
842,937	71,36
843,235	70,31
843,533	70,12
843,831	69,65
844,129	68,89
844,427	68,34
844,724	67,95
845,022	67,17
845,32	66,92
845,617	66,44
845,915	66,22
846,212	64,94
846,51	64,36
846,807	64,3
847,104	63,61
847,402	63,48
847,699	64,29
847,996	63,88
848,293	63,21
848,59	62,79
848,887	62,7
849,184	62,3
849,481	63,08
849,778	62,49
850,074	62,3
850,371	64,04
850,668	62,98
850,964	63,62
851,261	64,44
851,557	65,35
851,854	65,7
852,15	65,46
852,446	66,25
852,743	66,73
853,039	66,39
853,335	67,58
853,631	67,1
853,927	66,44
854,223	67,05
854,519	67,49
854,815	68,35
855,111	69,34
855,406	70,75
855,702	72,99
855,998	73,59
856,293	73,14
856,589	71,6
856,884	72,98
857,18	74,64
857,475	75,64
857,77	74,27
858,066	73,49
858,361	72,74
858,656	72,79
858,951	72,23
859,246	72,74
859,541	72,86
859,836	72,52
860,131	72,62
860,426	72,64
860,72	72,8
861,015	73,17
861,31	73,04
861,604	71,76
861,899	70,62
862,193	70,82
862,487	71,99
862,782	73,75
863,076	73,93
863,37	72,63
863,664	71,48
863,959	72,37
864,253	74,49
864,547	74,04
864,841	73,6
865,135	73,89
865,428	74,34
865,722	74,14
866,016	74,64
866,31	74,99
866,603	74,81
866,897	75,29
867,19	74,52
867,484	76,01
867,777	75,67
868,07	75,01
868,364	75,91
868,657	75,08
868,95	73,44
869,243	70,87
869,536	67
869,829	65,86
870,122	65,33
870,415	63,22
870,708	65,24
871	67,31
871,293	67,28
871,586	66,78
871,878	66,84
872,171	66,02
872,463	66,05
872,756	65,8
873,048	65,32
873,341	65,54
873,633	63,59
873,925	63,2
874,217	62,73
874,509	62,17
874,801	62,59
875,093	62,99
875,385	65,32
875,677	70,16
875,969	72,48
