Data from palm_tumV_v_45_25_Reflection_00001.txt Node
Date: Fri Feb 11 15:36:41 ART 2022
User: Nati
Spectrometer: USB2E3644
Trigger mode: 4
Integration Time (sec): 3,520000E-1
Scans to average: 10
Electric dark correction enabled: true
Nonlinearity correction enabled: false
Boxcar width: 10
XAxis mode: Wavelengths
Number of Pixels in Spectrum: 2048
>>>>>Begin Spectral Data<<<<<
178,315	-319,8
178,696	-481,82
179,076	-199,28
179,457	-452,94
179,838	-127,69
180,218	-112,93
180,599	-308,99
180,979	0
181,36	-23,51
181,74	24,89
182,121	116,87
182,501	437,93
182,881	-222,45
183,262	-196,77
183,642	181,63
184,022	140
184,402	119,31
184,783	87,16
185,163	15,86
185,543	95,72
185,923	150,43
186,303	140
186,683	156,31
187,063	328,57
187,443	-348,28
187,823	-20,48
188,203	21,83
188,583	33,13
188,963	62,92
189,343	50,55
189,723	26,49
190,102	-11,84
190,482	-4,58
190,862	-1,04
191,242	8,76
191,621	24,14
192,001	32,93
192,38	38,34
192,76	37,66
193,14	36,04
193,519	38,83
193,898	43,78
194,278	43,21
194,657	41,51
195,037	36,47
195,416	29,72
195,795	21,24
196,175	24,4
196,554	19,53
196,933	20,37
197,312	28,28
197,692	23,82
198,071	26,63
198,45	21,79
198,829	28,01
199,208	33,99
199,587	31,42
199,966	29,21
200,345	31,77
200,724	37,17
201,103	37,78
201,482	42,49
201,86	34,69
202,239	33,76
202,618	36,57
202,997	49,76
203,375	51,18
203,754	52,86
204,133	40,21
204,511	38,98
204,89	34,18
205,269	38,23
205,647	45,79
206,026	47,63
206,404	44,35
206,782	17,14
207,161	-6,21
207,539	-18,92
207,918	-40,82
208,296	-100
208,674	-134,81
209,052	-178,37
209,431	-338,51
209,809	-5881,82
210,187	2203,23
210,565	3531,58
210,943	856,96
211,321	320,32
211,699	277,56
212,077	704,71
212,455	1056,36
212,833	-1226,83
213,211	-402,8
213,589	-254,49
213,967	-187,87
214,345	-104,77
214,722	-90,26
215,1	-86,27
215,478	-34,55
215,855	-15,26
216,233	-9,96
216,611	-10,4
216,988	-18,06
217,366	-13,91
217,743	-2,33
218,121	4,46
218,498	9,72
218,876	8,28
219,253	4,94
219,631	6,7
220,008	17,53
220,385	23,55
220,762	20,58
221,14	15,47
221,517	11,33
221,894	10,59
222,271	13,86
222,648	28,07
223,025	35,83
223,402	31,45
223,78	28,38
224,157	29,92
224,533	20,94
224,91	17,55
225,287	19,79
225,664	11,44
226,041	6,18
226,418	-3,55
226,795	-7,94
227,171	-23,34
227,548	-32,75
227,925	-41,19
228,301	-52,52
228,678	-59,37
229,055	-37,62
229,431	-17,94
229,808	-15,57
230,184	-18,84
230,561	-21,44
230,937	-22,29
231,313	-29,11
231,69	-19,62
232,066	-11,52
232,442	-4,64
232,819	-0,46
233,195	-1,03
233,571	2,29
233,947	3,99
234,323	15,02
234,699	23,98
235,075	33,63
235,451	41,43
235,827	41,21
236,203	37,13
236,579	32,55
236,955	30,23
237,331	30,14
237,707	31,94
238,083	34,92
238,459	33,62
238,834	28,36
239,21	27,98
239,586	26,14
239,961	24,74
240,337	23,96
240,713	24,32
241,088	25,26
241,464	26,12
241,839	24,8
242,215	23,07
242,59	24,21
242,965	23,67
243,341	23,48
243,716	23,57
244,091	24,44
244,467	25,06
244,842	25,09
245,217	24,05
245,592	23,48
245,967	22,97
246,343	23,55
246,718	24,56
247,093	24,25
247,468	22,96
247,843	22,83
248,218	23,35
248,593	24,21
248,967	24,75
249,342	24,06
249,717	23,91
250,092	23,48
250,467	22,65
250,841	21,97
251,216	20,7
251,591	19,65
251,965	18,91
252,34	18,68
252,714	17,49
253,089	18,33
253,463	18,43
253,838	18,28
254,212	17,13
254,587	16,88
254,961	17,75
255,335	18,73
255,71	18,13
256,084	18,34
256,458	17,38
256,832	16,37
257,206	16,98
257,581	17,55
257,955	17,87
258,329	18,24
258,703	18,87
259,077	19,18
259,451	19,36
259,825	18,92
260,199	18,23
260,572	18,09
260,946	17,96
261,32	18,77
261,694	19,39
262,068	19,7
262,441	19,46
262,815	19,62
263,189	19,59
263,562	20,09
263,936	20,03
264,309	20,59
264,683	21,44
265,056	21,4
265,43	21,08
265,803	21,03
266,176	20,72
266,55	20,9
266,923	21,62
267,296	21,9
267,67	22,04
268,043	22,22
268,416	22,67
268,789	22,06
269,162	21,27
269,535	21,05
269,908	21,24
270,281	21,59
270,654	21,31
271,027	21,22
271,4	21,26
271,773	21,37
272,146	21,2
272,519	21,09
272,891	20,98
273,264	21,14
273,637	21,62
274,01	21,8
274,382	21,28
274,755	20,91
275,127	20,96
275,5	21,34
275,872	21,5
276,245	21,65
276,617	21,94
276,99	22,28
277,362	21,75
277,734	21,24
278,107	21,21
278,479	22,17
278,851	22,55
279,223	22,61
279,596	22,31
279,968	21,83
280,34	21,53
280,712	21,68
281,084	21,73
281,456	21,22
281,828	21,06
282,2	21,14
282,572	21,08
282,944	21,01
283,315	21,13
283,687	21,38
284,059	21,31
284,431	21,29
284,802	20,92
285,174	20,7
285,546	20,47
285,917	20,18
286,289	19,26
286,66	18,91
287,032	18,77
287,403	18,77
287,775	19,06
288,146	19,06
288,518	18,96
288,889	18,58
289,26	18,56
289,632	18,82
290,003	18,8
290,374	18,81
290,745	18,64
291,116	18,42
291,487	18,15
291,858	18,32
292,229	18,32
292,6	18,38
292,971	18,43
293,342	18,47
293,713	18,48
294,084	18,65
294,455	18,82
294,826	18,99
295,196	19,26
295,567	19,39
295,938	19,38
296,308	19,2
296,679	19,43
297,05	19,63
297,42	19,13
297,791	19,07
298,161	19,1
298,532	19,23
298,902	19,15
299,272	19,17
299,643	19,04
300,013	19,15
300,383	19,23
300,754	19,14
301,124	19,22
301,494	19,23
301,864	19,2
302,234	18,86
302,604	18,58
302,974	18,54
303,344	18,74
303,714	18,82
304,084	19,06
304,454	19,11
304,824	19,05
305,194	19,3
305,563	19,1
305,933	18,97
306,303	18,92
306,673	19,12
307,042	18,97
307,412	18,9
307,781	18,88
308,151	18,8
308,521	18,92
308,89	19,27
309,259	19,42
309,629	19,24
309,998	19,37
310,368	19,48
310,737	19,26
311,106	18,99
311,475	19,01
311,845	18,92
312,214	18,88
312,583	18,57
312,952	18,39
313,321	18,45
313,69	18,4
314,059	18,46
314,428	18,21
314,797	18,21
315,166	17,76
315,535	17,42
315,904	17,23
316,272	17,23
316,641	16,84
317,01	16,61
317,379	16,76
317,747	16,67
318,116	16,66
318,484	16,69
318,853	16,46
319,221	16,08
319,59	16,01
319,958	15,96
320,327	16,07
320,695	15,98
321,063	15,79
321,432	15,67
321,8	15,48
322,168	15,54
322,536	15,42
322,905	15,56
323,273	15,57
323,641	15,71
324,009	15,72
324,377	15,67
324,745	15,73
325,113	15,93
325,481	16,07
325,849	16,17
326,216	16,19
326,584	16,28
326,952	16,46
327,32	16,41
327,687	16,35
328,055	16,27
328,423	16,38
328,79	16,54
329,158	16,61
329,525	16,52
329,893	16,45
330,26	16,62
330,628	16,6
330,995	16,43
331,362	16,29
331,73	16,26
332,097	16,38
332,464	16,24
332,831	16,01
333,199	15,84
333,566	15,72
333,933	15,71
334,3	15,61
334,667	15,46
335,034	15,49
335,401	15,49
335,768	15,6
336,135	15,53
336,502	15,46
336,868	15,51
337,235	15,65
337,602	15,58
337,969	15,54
338,335	15,65
338,702	15,84
339,069	15,9
339,435	15,92
339,802	15,85
340,168	15,9
340,535	15,93
340,901	15,98
341,267	16,03
341,634	16,01
342	15,97
342,366	16,06
342,733	16
343,099	15,92
343,465	15,81
343,831	15,83
344,197	15,83
344,563	15,74
344,929	15,63
345,295	15,65
345,661	15,58
346,027	15,68
346,393	15,62
346,759	15,56
347,125	15,46
347,491	15,45
347,856	15,42
348,222	15,39
348,588	15,36
348,953	15,19
349,319	15,17
349,684	15,25
350,05	15,26
350,415	15,28
350,781	15,32
351,146	15,24
351,512	15,11
351,877	15,06
352,242	15,03
352,608	15,02
352,973	14,96
353,338	14,86
353,703	14,61
354,068	14,61
354,433	14,63
354,798	14,75
355,164	14,87
355,528	14,89
355,893	14,87
356,258	14,88
356,623	14,93
356,988	14,9
357,353	14,81
357,718	14,72
358,082	14,73
358,447	14,58
358,812	14,61
359,176	14,73
359,541	14,67
359,905	14,63
360,27	14,67
360,634	14,67
360,999	14,75
361,363	14,86
361,728	14,9
362,092	14,84
362,456	14,8
362,821	14,69
363,185	14,63
363,549	14,64
363,913	14,69
364,277	14,71
364,641	14,72
365,005	14,74
365,369	14,72
365,733	14,66
366,097	14,67
366,461	14,7
366,825	14,63
367,189	14,65
367,553	14,64
367,916	14,56
368,28	14,61
368,644	14,59
369,007	14,57
369,371	14,59
369,734	14,63
370,098	14,6
370,461	14,62
370,825	14,62
371,188	14,61
371,552	14,57
371,915	14,56
372,278	14,51
372,642	14,49
373,005	14,55
373,368	14,49
373,731	14,53
374,094	14,49
374,457	14,41
374,82	14,45
375,183	14,47
375,546	14,46
375,909	14,41
376,272	14,37
376,635	14,35
376,998	14,29
377,361	14,3
377,723	14,24
378,086	14,17
378,449	14,15
378,811	14,12
379,174	14,11
379,537	14,03
379,899	14
380,262	14,07
380,624	14
380,987	14,08
381,349	14,12
381,711	14,13
382,074	14,17
382,436	14,17
382,798	14,41
383,16	14,35
383,522	14,32
383,884	14,32
384,247	14,32
384,609	14,32
384,971	14,31
385,333	14,33
385,695	14,32
386,056	14,3
386,418	14,31
386,78	14,41
387,142	14,35
387,504	14,34
387,865	14,25
388,227	14,25
388,589	14,25
388,95	14,19
389,312	14,19
389,673	14,22
390,035	14,13
390,396	13,94
390,758	13,99
391,119	13,99
391,48	14,01
391,842	14,02
392,203	14
392,564	13,98
392,925	13,99
393,286	13,98
393,648	13,99
394,009	13,99
394,37	13,95
394,731	14,02
395,092	14,05
395,452	14,08
395,813	14,07
396,174	14,01
396,535	14,03
396,896	14
397,257	13,96
397,617	14
397,978	14,04
398,338	13,98
398,699	14
399,06	14,04
399,42	13,94
399,781	13,95
400,141	13,89
400,501	13,86
400,862	13,88
401,222	13,86
401,582	13,87
401,943	13,82
402,303	13,83
402,663	13,83
403,023	13,81
403,383	13,8
403,743	13,83
404,103	13,81
404,463	13,85
404,823	13,88
405,183	13,88
405,543	13,81
405,903	13,84
406,262	13,85
406,622	13,8
406,982	13,87
407,342	13,85
407,701	13,87
408,061	13,91
408,42	13,91
408,78	13,9
409,139	13,91
409,499	13,9
409,858	13,93
410,217	13,91
410,577	13,88
410,936	13,93
411,295	13,93
411,655	13,93
412,014	13,96
412,373	13,98
412,732	13,97
413,091	13,96
413,45	13,98
413,809	13,95
414,168	13,93
414,527	13,93
414,886	13,94
415,245	13,93
415,603	13,94
415,962	13,95
416,321	13,99
416,679	13,98
417,038	14
417,397	13,99
417,755	14
418,114	14,04
418,472	14,05
418,831	14,07
419,189	14,08
419,547	14,07
419,906	14,06
420,264	14,07
420,622	14,1
420,981	14,12
421,339	14,14
421,697	14,15
422,055	14,17
422,413	14,18
422,771	14,22
423,129	14,23
423,487	14,26
423,845	14,26
424,203	14,28
424,56	14,3
424,918	14,32
425,276	14,36
425,634	14,38
425,991	14,39
426,349	14,4
426,707	14,43
427,064	14,46
427,422	14,51
427,779	14,57
428,137	14,63
428,494	14,69
428,851	14,75
429,209	14,82
429,566	14,87
429,923	14,92
430,28	14,97
430,637	15,04
430,995	15,05
431,352	15,11
431,709	15,13
432,066	15,18
432,423	15,23
432,78	15,25
433,137	15,27
433,493	15,31
433,85	15,41
434,207	15,42
434,564	15,46
434,92	15,5
435,277	15,53
435,634	15,56
435,99	15,58
436,347	15,62
436,703	15,68
437,06	15,72
437,416	15,81
437,773	15,84
438,129	15,87
438,485	15,96
438,841	15,96
439,198	16,02
439,554	16,03
439,91	16,06
440,266	16,1
440,622	16,14
440,978	16,16
441,334	16,16
441,69	16,24
442,046	16,29
442,402	16,33
442,758	16,37
443,113	16,42
443,469	16,49
443,825	16,54
444,181	16,58
444,536	16,63
444,892	16,63
445,247	16,67
445,603	16,7
445,958	16,72
446,314	16,76
446,669	16,78
447,025	16,81
447,38	16,84
447,735	16,87
448,09	16,91
448,446	16,97
448,801	17,01
449,156	17,03
449,511	17,09
449,866	17,14
450,221	17,21
450,576	17,26
450,931	17,31
451,286	17,33
451,641	17,38
451,995	17,44
452,35	17,51
452,705	17,54
453,06	17,58
453,414	17,61
453,769	17,64
454,123	17,67
454,478	17,68
454,832	17,74
455,187	17,75
455,541	17,78
455,896	17,78
456,25	17,81
456,604	17,83
456,958	17,83
457,313	17,82
457,667	17,82
458,021	17,83
458,375	17,84
458,729	17,85
459,083	17,86
459,437	17,87
459,791	17,87
460,145	17,9
460,499	17,9
460,852	17,9
461,206	17,92
461,56	17,93
461,914	17,95
462,267	17,93
462,621	17,95
462,974	17,96
463,328	17,97
463,681	17,98
464,035	18,01
464,388	18,01
464,742	18,03
465,095	18,06
465,448	18,08
465,801	18,1
466,155	18,11
466,508	18,14
466,861	18,14
467,214	18,13
467,567	18,14
467,92	18,15
468,273	18,15
468,626	18,15
468,979	18,16
469,332	18,16
469,684	18,17
470,037	18,18
470,39	18,18
470,743	18,17
471,095	18,17
471,448	18,16
471,8	18,17
472,153	18,21
472,505	18,22
472,858	18,21
473,21	18,2
473,562	18,22
473,915	18,2
474,267	18,2
474,619	18,21
474,971	18,2
475,324	18,19
475,676	18,23
476,028	18,21
476,38	18,21
476,732	18,22
477,084	18,2
477,436	18,18
477,787	18,19
478,139	18,2
478,491	18,2
478,843	18,18
479,195	18,21
479,546	18,19
479,898	18,22
480,249	18,31
480,601	18,4
480,952	18,45
481,304	18,47
481,655	18,46
482,007	18,47
482,358	18,46
482,709	18,47
483,061	18,45
483,412	18,45
483,763	18,46
484,114	18,46
484,465	18,47
484,816	18,48
485,167	18,48
485,518	18,48
485,869	18,49
486,22	18,5
486,571	18,49
486,922	18,51
487,272	18,49
487,623	18,45
487,974	18,42
488,324	18,38
488,675	18,37
489,025	18,39
489,376	18,39
489,726	18,41
490,077	18,42
490,427	18,45
490,778	18,47
491,128	18,47
491,478	18,47
491,828	18,49
492,179	18,51
492,529	18,53
492,879	18,54
493,229	18,56
493,579	18,57
493,929	18,6
494,279	18,62
494,629	18,64
494,979	18,67
495,328	18,69
495,678	18,75
496,028	18,79
496,378	18,83
496,727	18,87
497,077	18,9
497,426	18,95
497,776	18,94
498,125	18,96
498,475	18,99
498,824	19,01
499,174	19,05
499,523	19,08
499,872	19,09
500,221	19,12
500,571	19,17
500,92	19,2
501,269	19,24
501,618	19,26
501,967	19,28
502,316	19,33
502,665	19,36
503,014	19,38
503,363	19,42
503,711	19,43
504,06	19,45
504,409	19,49
504,758	19,49
505,106	19,56
505,455	19,63
505,803	19,68
506,152	19,72
506,5	19,75
506,849	19,8
507,197	19,85
507,546	19,91
507,894	19,96
508,242	20,02
508,59	20,05
508,939	20,11
509,287	20,19
509,635	20,24
509,983	20,28
510,331	20,33
510,679	20,38
511,027	20,42
511,375	20,48
511,723	20,51
512,07	20,58
512,418	20,63
512,766	20,68
513,114	20,72
513,461	20,78
513,809	20,86
514,156	20,91
514,504	20,98
514,851	21,06
515,199	21,12
515,546	21,2
515,893	21,3
516,241	21,38
516,588	21,42
516,935	21,48
517,282	21,54
517,63	21,59
517,977	21,62
518,324	21,68
518,671	21,73
519,018	21,81
519,365	21,86
519,711	21,92
520,058	21,97
520,405	22,01
520,752	22,09
521,099	22,13
521,445	22,21
521,792	22,27
522,138	22,32
522,485	22,39
522,832	22,44
523,178	22,49
523,524	22,53
523,871	22,6
524,217	22,67
524,563	22,76
524,91	22,87
525,256	23,04
525,602	23,14
525,948	23,23
526,294	23,27
526,64	23,3
526,986	23,32
527,332	23,34
527,678	23,38
528,024	23,39
528,37	23,43
528,716	23,42
529,061	23,45
529,407	23,5
529,753	23,54
530,098	23,59
530,444	23,63
530,789	23,67
531,135	23,7
531,48	23,73
531,826	23,74
532,171	23,76
532,516	23,74
532,862	23,76
533,207	23,77
533,552	23,78
533,897	23,81
534,242	23,85
534,587	23,88
534,932	23,92
535,277	23,95
535,622	23,95
535,967	24,01
536,312	24,04
536,657	24,05
537,001	24,07
537,346	24,07
537,691	24,09
538,035	24,15
538,38	24,17
538,724	24,2
539,069	24,21
539,413	24,22
539,758	24,23
540,102	24,25
540,446	24,25
540,791	24,27
541,135	24,27
541,479	24,3
541,823	24,31
542,167	24,3
542,512	24,32
542,856	24,33
543,2	24,33
543,543	24,32
543,887	24,33
544,231	24,34
544,575	24,35
544,919	24,37
545,262	24,35
545,606	24,35
545,95	24,36
546,293	24,38
546,637	24,38
546,98	24,4
547,324	24,39
547,667	24,44
548,011	24,46
548,354	24,49
548,697	24,46
549,04	24,46
549,384	24,47
549,727	24,44
550,07	24,46
550,413	24,47
550,756	24,51
551,099	24,52
551,442	24,51
551,785	24,54
552,128	24,54
552,47	24,54
552,813	24,55
553,156	24,51
553,499	24,52
553,841	24,53
554,184	24,54
554,526	24,54
554,869	24,52
555,211	24,52
555,554	24,51
555,896	24,51
556,238	24,52
556,581	24,53
556,923	24,54
557,265	24,54
557,607	24,52
557,949	24,52
558,291	24,5
558,633	24,46
558,975	24,45
559,317	24,41
559,659	24,4
560,001	24,39
560,343	24,38
560,685	24,4
561,026	24,38
561,368	24,38
561,71	24,36
562,051	24,32
562,393	24,38
562,734	24,29
563,076	24,3
563,417	24,28
563,759	24,23
564,1	24,2
564,441	24,17
564,782	24,16
565,124	24,11
565,465	24,09
565,806	24,07
566,147	24,06
566,488	24,04
566,829	24,01
567,17	23,98
567,511	23,97
567,851	23,91
568,192	23,89
568,533	23,82
568,874	23,8
569,214	23,77
569,555	23,68
569,895	23,67
570,236	23,63
570,576	23,59
570,917	23,57
571,257	23,51
571,598	23,48
571,938	23,42
572,278	23,41
572,618	23,36
572,959	23,36
573,299	23,3
573,639	23,28
573,979	23,24
574,319	23,21
574,659	23,19
574,999	23,15
575,339	23,11
575,678	23,12
576,018	23,07
576,358	23,06
576,698	23,05
577,037	23,06
577,377	23,02
577,716	22,98
578,056	22,98
578,395	22,95
578,735	22,93
579,074	22,92
579,413	22,89
579,753	22,89
580,092	22,85
580,431	22,84
580,77	22,84
581,109	22,86
581,448	22,83
581,787	22,78
582,126	22,77
582,465	22,75
582,804	22,68
583,143	22,71
583,482	22,63
583,82	22,59
584,159	22,52
584,498	22,52
584,836	22,52
585,175	22,51
585,514	22,49
585,852	22,45
586,19	22,48
586,529	22,45
586,867	22,44
587,205	22,44
587,544	22,45
587,882	22,41
588,22	22,35
588,558	22,34
588,896	22,36
589,234	22,34
589,572	22,29
589,91	22,29
590,248	22,25
590,586	22,29
590,924	22,26
591,262	22,28
591,599	22,26
591,937	22,26
592,275	22,21
592,612	22,21
592,95	22,19
593,287	22,18
593,625	22,14
593,962	22,13
594,299	22,13
594,637	22,08
594,974	22,06
595,311	22,09
595,648	22,09
595,985	22,07
596,322	22,07
596,659	22,12
596,996	22,12
597,333	22,09
597,67	22,07
598,007	22,07
598,344	22,03
598,681	22,08
599,017	22,01
599,354	21,99
599,691	22
600,027	22,02
600,364	21,96
600,7	21,96
601,037	21,92
601,373	21,87
601,71	21,87
602,046	21,87
602,382	21,81
602,718	21,82
603,054	21,78
603,391	21,76
603,727	21,73
604,063	21,73
604,399	21,71
604,735	21,72
605,071	21,72
605,406	21,71
605,742	21,68
606,078	21,69
606,414	21,67
606,749	21,64
607,085	21,61
607,421	21,63
607,756	21,64
608,092	21,63
608,427	21,63
608,762	21,63
609,098	21,61
609,433	21,61
609,768	21,57
610,104	21,6
610,439	21,56
610,774	21,6
611,109	21,53
611,444	21,57
611,779	21,56
612,114	21,51
612,449	21,51
612,784	21,47
613,118	21,46
613,453	21,47
613,788	21,44
614,123	21,42
614,457	21,39
614,792	21,37
615,126	21,32
615,461	21,28
615,795	21,26
616,13	21,27
616,464	21,26
616,798	21,26
617,132	21,23
617,467	21,24
617,801	21,14
618,135	21,16
618,469	21,14
618,803	21,07
619,137	21,11
619,471	21,05
619,805	21,04
620,139	21,03
620,472	21
620,806	21,01
621,14	20,97
621,473	20,94
621,807	20,9
622,141	20,96
622,474	20,97
622,808	21,01
623,141	20,99
623,474	20,95
623,808	20,93
624,141	20,93
624,474	20,94
624,807	20,93
625,141	20,9
625,474	20,91
625,807	20,93
626,14	20,89
626,473	20,9
626,806	20,9
627,138	20,93
627,471	20,9
627,804	20,91
628,137	20,99
628,469	20,92
628,802	20,91
629,135	20,85
629,467	20,82
629,8	20,71
630,132	20,65
630,465	20,66
630,797	20,68
631,129	20,6
631,461	20,57
631,794	20,63
632,126	20,59
632,458	20,54
632,79	20,48
633,122	20,5
633,454	20,5
633,786	20,47
634,118	20,44
634,45	20,48
634,781	20,45
635,113	20,35
635,445	20,39
635,777	20,39
636,108	20,4
636,44	20,39
636,771	20,4
637,103	20,4
637,434	20,4
637,765	20,35
638,097	20,5
638,428	20,42
638,759	20,32
639,09	20,29
639,422	20,3
639,753	20,33
640,084	20,27
640,415	20,25
640,746	20,26
641,077	20,15
641,407	20,11
641,738	20,1
642,069	20,09
642,4	20,06
642,73	19,99
643,061	19,93
643,392	19,91
643,722	19,89
644,053	19,91
644,383	19,86
644,713	19,81
645,044	19,63
645,374	19,68
645,704	19,7
646,034	19,72
646,365	19,65
646,695	19,67
647,025	19,67
647,355	19,57
647,685	19,5
648,015	19,5
648,344	19,44
648,674	19,41
649,004	19,38
649,334	19,37
649,663	19,4
649,993	19,45
650,323	19,43
650,652	19,38
650,982	19,3
651,311	19,27
651,64	19,25
651,97	19,25
652,299	19,23
652,628	19,2
652,958	19,18
653,287	19,28
653,616	19,16
653,945	19,11
654,274	19,17
654,603	19,18
654,932	19,2
655,261	19,25
655,589	19,22
655,918	19,16
656,247	19,09
656,576	19,07
656,904	18,98
657,233	18,97
657,561	18,91
657,89	18,91
658,218	18,9
658,547	18,91
658,875	18,92
659,203	18,86
659,532	18,81
659,86	18,82
660,188	18,72
660,516	18,72
660,844	18,7
661,172	18,69
661,5	18,61
661,828	18,57
662,156	18,52
662,484	18,5
662,811	18,48
663,139	18,45
663,467	18,37
663,794	18,34
664,122	18,28
664,45	18,3
664,777	18,28
665,104	18,37
665,432	18,21
665,759	18,12
666,086	18,17
666,414	18,06
666,741	17,98
667,068	17,9
667,395	17,86
667,722	17,86
668,049	17,78
668,376	17,79
668,703	17,73
669,03	17,69
669,357	17,59
669,683	17,58
670,01	17,58
670,337	17,61
670,663	17,65
670,99	17,65
671,317	17,65
671,643	17,66
671,969	17,52
672,296	17,57
672,622	17,58
672,948	17,51
673,275	17,56
673,601	17,55
673,927	17,53
674,253	17,54
674,579	17,55
674,905	17,53
675,231	17,5
675,557	17,53
675,883	17,53
676,209	17,6
676,534	17,54
676,86	17,6
677,186	17,58
677,511	17,56
677,837	17,54
678,162	17,51
678,488	17,49
678,813	17,58
679,139	17,56
679,464	17,53
679,789	17,56
680,114	17,56
680,44	17,59
680,765	17,61
681,09	17,62
681,415	17,61
681,74	17,64
682,065	17,73
682,39	17,75
682,714	17,79
683,039	17,79
683,364	17,92
683,689	17,86
684,013	17,91
684,338	17,91
684,662	18,01
684,987	18,07
685,311	18,12
685,636	18,1
685,96	18,19
686,284	18,32
686,608	18,39
686,933	18,53
687,257	18,66
687,581	18,82
687,905	18,91
688,229	18,96
688,553	19,02
688,877	19,12
689,201	19,2
689,524	19,28
689,848	19,45
690,172	19,51
690,496	19,71
690,819	19,85
691,143	20,03
691,466	20,15
691,79	20,32
692,113	20,54
692,436	20,64
692,76	20,78
693,083	20,85
693,406	21,03
693,729	21,15
694,053	21,3
694,376	21,43
694,699	21,6
695,022	21,9
695,344	22,17
695,667	22,32
695,99	22,54
696,313	22,67
696,636	22,77
696,958	23
697,281	23,11
697,604	23,23
697,926	23,29
698,249	23,55
698,571	23,61
698,893	23,59
699,216	23,75
699,538	23,89
699,86	24,01
700,182	24,13
700,504	24,26
700,827	24,41
701,149	24,55
701,471	24,7
701,793	24,79
702,114	24,98
702,436	25,14
702,758	25,4
703,08	25,75
703,401	26,03
703,723	26,24
704,045	26,49
704,366	26,82
704,688	27,11
705,009	27,05
705,331	27,37
705,652	27,58
705,973	27,8
706,294	28,01
706,616	28,29
706,937	28,44
707,258	28,63
707,579	28,82
707,9	29,05
708,221	29,32
708,542	29,58
708,863	29,75
709,183	30,01
709,504	30,16
709,825	30,38
710,145	30,54
710,466	30,74
710,787	30,88
711,107	30,96
711,427	31,21
711,748	31,52
712,068	31,73
712,388	32,1
712,709	32,33
713,029	32,61
713,349	32,83
713,669	33,05
713,989	33,27
714,309	33,43
714,629	33,62
714,949	33,8
715,269	34,04
715,589	34,31
715,908	34,58
716,228	34,79
716,548	34,95
716,867	35,17
717,187	35,32
717,506	35,66
717,826	35,96
718,145	36,11
718,465	36,31
718,784	36,54
719,103	36,72
719,422	36,95
719,741	37,25
720,061	37,66
720,38	38,02
720,699	38,36
721,018	38,7
721,336	39
721,655	39,35
721,974	39,6
722,293	39,85
722,612	40,14
722,93	40,45
723,249	40,82
723,567	41,16
723,886	41,51
724,204	41,85
724,523	42,12
724,841	42,43
725,159	42,77
725,477	43,07
725,796	43,34
726,114	43,76
726,432	44,04
726,75	44,14
727,068	44,37
727,386	44,61
727,704	45,05
728,022	45,34
728,339	45,65
728,657	45,97
728,975	46,38
729,292	46,65
729,61	47,02
729,928	47,16
730,245	47,41
730,562	47,69
730,88	47,85
731,197	48,1
731,514	48,38
731,832	48,6
732,149	48,88
732,466	49,2
732,783	49,33
733,1	49,67
733,417	49,93
733,734	50,31
734,051	50,59
734,368	50,71
734,684	51,05
735,001	51,32
735,318	51,61
735,634	51,69
735,951	52,11
736,268	52,41
736,584	52,68
736,9	53
737,217	53,35
737,533	53,64
737,849	53,87
738,166	54,18
738,482	54,44
738,798	54,81
739,114	55,06
739,43	55,28
739,746	55,34
740,062	55,68
740,378	56
740,693	56,23
741,009	56,46
741,325	56,69
741,641	56,77
741,956	56,98
742,272	57,3
742,587	57,32
742,903	57,2
743,218	57,47
743,533	57,66
743,849	57,93
744,164	58,2
744,479	58,53
744,794	58,8
745,109	59,07
745,424	59,18
745,739	59,41
746,054	59,66
746,369	59,97
746,684	60,19
746,999	60,33
747,313	60,46
747,628	60,56
747,943	60,62
748,257	60,83
748,572	61,1
748,886	61,29
749,201	61,47
749,515	61,89
749,829	62,05
750,144	62,26
750,458	62,27
750,772	62,25
751,086	62,59
751,4	62,54
751,714	62,66
752,028	62,71
752,342	62,8
752,656	62,92
752,97	62,84
753,284	62,89
753,597	62,83
753,911	63,09
754,225	63,32
754,538	63,39
754,852	63,59
755,165	63,57
755,478	63,79
755,792	63,8
756,105	63,96
756,418	64,25
756,731	64,31
757,045	64,43
757,358	64,48
757,671	64,49
757,984	64,69
758,297	64,76
758,609	64,91
758,922	65,07
759,235	65,2
759,548	65,33
759,86	65,2
760,173	65,16
760,486	65,13
760,798	65,16
761,111	65,1
761,423	65,14
761,735	65,05
762,048	64,89
762,36	64,98
762,672	64,87
762,984	64,73
763,296	64,69
763,608	64,7
763,92	64,84
764,232	64,76
764,544	64,85
764,856	64,86
765,168	64,84
765,48	64,79
765,791	64,79
766,103	64,87
766,414	65,07
766,726	65,17
767,037	65,11
767,349	64,96
767,66	65,06
767,972	64,97
768,283	65,06
768,594	65,27
768,905	65,4
769,216	65,63
769,527	65,78
769,838	65,84
770,149	66,06
770,46	66,27
770,771	66,17
771,082	65,94
771,393	66,09
771,703	66,11
772,014	66,11
772,324	66,28
772,635	66,38
772,945	66,3
773,256	66,37
773,566	66,22
773,877	66,39
774,187	66,52
774,497	66,37
774,807	66,36
775,117	66,17
775,427	65,92
775,737	65,97
776,047	66,29
776,357	66,29
776,667	66,2
776,977	66,24
777,287	66,63
777,596	66,74
777,906	66,8
778,216	67
778,525	67,12
778,835	67,04
779,144	68,38
779,453	68,59
779,763	68,58
780,072	68,81
780,381	68,92
780,69	69,05
781	69,32
781,309	69,2
781,618	69,44
781,927	69,89
782,235	69,63
782,544	69,37
782,853	69,42
783,162	69,6
783,471	69,99
783,779	69,57
784,088	69,72
784,396	69,64
784,705	69,58
785,013	69,73
785,322	69,51
785,63	67,89
785,938	68,12
786,246	68,18
786,554	68,26
786,863	67,86
787,171	67,63
787,479	67,81
787,787	67,96
788,094	68,26
788,402	68,12
788,71	68,17
789,018	68,18
789,326	68,15
789,633	67,92
789,941	67,13
790,248	67,32
790,556	67,52
790,863	67,75
791,171	67,69
791,478	67,37
791,785	67,57
792,092	67,75
792,399	67,63
792,707	67,49
793,014	67,52
793,321	68,14
793,628	68,38
793,934	68,4
794,241	68,45
794,548	68,04
794,855	67,74
795,161	67,59
795,468	67,57
795,775	68,03
796,081	68,15
796,388	68,66
796,694	68,7
797	68,51
797,307	68,2
797,613	68,17
797,919	68,09
798,225	68,13
798,531	67,79
798,837	67,48
799,143	67,64
799,449	67,82
799,755	67,73
800,061	67,76
800,367	67,88
800,672	67,91
800,978	68,19
801,284	68,43
801,589	68,67
801,895	68,77
802,2	68,48
802,506	68,37
802,811	68,45
803,116	68,29
803,421	68,33
803,727	68,51
804,032	68,65
804,337	68,8
804,642	68,83
804,947	68,92
805,252	69,32
805,556	69,37
805,861	69,64
806,166	69,52
806,471	69,34
806,775	69,16
807,08	69,42
807,384	69,09
807,689	69,34
807,993	69,64
808,298	69,74
808,602	69,65
808,906	69,88
809,211	69,56
809,515	70,07
809,819	69,95
810,123	69,72
810,427	69,61
810,731	69,57
811,035	69,65
811,338	69,61
811,642	69,37
811,946	69,07
812,25	68,91
812,553	68,75
812,857	69,15
813,16	68,83
813,464	68,41
813,767	68,48
814,07	68,36
814,374	68,1
814,677	67,81
814,98	67,84
815,283	67,52
815,586	67,75
815,889	67,81
816,192	68,43
816,495	68,72
816,798	69,04
817,101	69,22
817,404	69,02
817,706	69,02
818,009	69,23
818,312	69,55
818,614	69,11
818,917	69,23
819,219	69,44
819,521	69,43
819,824	69,25
820,126	69,07
820,428	68,98
820,73	69
821,032	69,08
821,334	69,14
821,636	69,04
821,938	68,98
822,24	68,86
822,542	68,78
822,844	68,81
823,145	68,79
823,447	68,86
823,749	68,87
824,05	68,94
824,352	68,9
824,653	68,81
824,955	68,97
825,256	69,05
825,557	69,01
825,858	68,97
826,16	69,02
826,461	69,23
826,762	69,35
827,063	69,37
827,364	69,35
827,665	69,29
827,965	69,43
828,266	69,5
828,567	69,74
828,868	69,8
829,168	69,67
829,469	69,8
829,769	69,72
830,07	69,9
830,37	69,95
830,67	69,93
830,971	70,05
831,271	70,05
831,571	69,67
831,871	69,29
832,171	69,41
832,471	69,57
832,771	69,14
833,071	69,05
833,371	69,05
833,671	68,69
833,971	68,65
834,27	68,5
834,57	68,46
834,869	68,27
835,169	68,42
835,468	68,83
835,768	68,68
836,067	68,67
836,367	68,74
836,666	68,43
836,965	68,69
837,264	68,84
837,563	68,19
837,862	68,41
838,161	69,06
838,46	69,04
838,759	69,04
839,058	69,15
839,356	68,93
839,655	68,7
839,954	69,42
840,252	69,62
840,551	70,11
840,849	70,22
841,148	69,93
841,446	69,76
841,744	69,34
842,043	69,16
842,341	69,5
842,639	68,97
842,937	69,19
843,235	68,96
843,533	69,2
843,831	69,83
844,129	69,92
844,427	69,49
844,724	69,59
845,022	69,57
845,32	69,31
845,617	69,54
845,915	70,11
846,212	69,96
846,51	70,1
846,807	70,28
847,104	70,15
847,402	70,78
847,699	71,25
847,996	70,77
848,293	71,02
848,59	70,4
848,887	70,22
849,184	70,95
849,481	71,53
849,778	71,64
850,074	73,04
850,371	72,7
850,668	72,09
850,964	72,21
851,261	72,58
851,557	73,69
851,854	73,88
852,15	73,42
852,446	72,82
852,743	72,63
853,039	73,62
853,335	74,4
853,631	73,9
853,927	73,57
854,223	73,77
854,519	74,04
854,815	73,28
855,111	74,12
855,406	73,05
855,702	71,96
855,998	73,02
856,293	72,6
856,589	72,83
856,884	72,74
857,18	73,57
857,475	72,18
857,77	71,54
858,066	70,98
858,361	70,73
858,656	70,5
858,951	69,28
859,246	68,99
859,541	70,28
859,836	71,04
860,131	70,26
860,426	70,56
860,72	68,05
861,015	68,97
861,31	69,38
861,604	71,05
861,899	72,16
862,193	70,68
862,487	70,04
862,782	70,37
863,076	69,78
863,37	68,45
863,664	69,18
863,959	69,87
864,253	70,93
864,547	70,84
864,841	74,51
865,135	76,82
865,428	75,92
865,722	73,74
866,016	71,85
866,31	71,93
866,603	71,85
866,897	75,45
867,19	77,19
867,484	76,56
867,777	76,37
868,07	75,68
868,364	75,81
868,657	74,89
868,95	74,81
869,243	76,5
869,536	77,7
869,829	77,76
870,122	78,1
870,415	77,32
870,708	77,5
871	75,84
871,293	75,57
871,586	75,51
871,878	76,49
872,171	77,76
872,463	76,64
872,756	76,46
873,048	74,72
873,341	73,45
873,633	73,04
873,925	72,12
874,217	71,39
874,509	70,7
874,801	71,26
875,093	70,67
875,385	69,91
875,677	69,77
875,969	70,03
