Data from palm_tumJ_v_45_25_Reflection_00003.txt Node
Date: Fri Feb 11 15:30:12 ART 2022
User: Nati
Spectrometer: USB2E3644
Trigger mode: 4
Integration Time (sec): 3,520000E-1
Scans to average: 10
Electric dark correction enabled: true
Nonlinearity correction enabled: false
Boxcar width: 10
XAxis mode: Wavelengths
Number of Pixels in Spectrum: 2048
>>>>>Begin Spectral Data<<<<<
178,315	22,88
178,696	29
179,076	29,7
179,457	39,96
179,838	45,81
180,218	-4,67
180,599	-146,48
180,979	73,68
181,36	139,09
181,74	150,53
182,121	110,55
182,501	128,36
182,881	120,88
183,262	111,62
183,642	100,61
184,022	94,15
184,402	86,74
184,783	79,47
185,163	76,35
185,543	82,57
185,923	89,19
186,303	94,12
186,683	95,35
187,063	93,34
187,443	99,46
187,823	102,42
188,203	106,23
188,583	106,72
188,963	106,46
189,343	102,18
189,723	99,58
190,102	100,16
190,482	98,66
190,862	99,6
191,242	99,97
191,621	104
192,001	103,73
192,38	104,55
192,76	107,08
193,14	108,7
193,519	106,08
193,898	105,13
194,278	104,46
194,657	104,55
195,037	106,49
195,416	105,7
195,795	107,35
196,175	105,4
196,554	106,35
196,933	108,85
197,312	111,77
197,692	112,84
198,071	111,29
198,45	112,17
198,829	113,46
199,208	113,68
199,587	111,29
199,966	111,71
200,345	112,75
200,724	112,18
201,103	112,68
201,482	114,46
201,86	112,67
202,239	111,83
202,618	112,16
202,997	110,79
203,375	109,84
203,754	107,82
204,133	108,04
204,511	108,12
204,89	106,76
205,269	106,45
205,647	108,46
206,026	111,97
206,404	113,4
206,782	111,82
207,161	112,23
207,539	112,67
207,918	112,73
208,296	109,53
208,674	109,46
209,052	109,75
209,431	109,39
209,809	109,78
210,187	110,65
210,565	110,38
210,943	109,74
211,321	108,13
211,699	110,08
212,077	110,66
212,455	107,49
212,833	107,8
213,211	105,32
213,589	102,04
213,967	100,16
214,345	98,07
214,722	98,46
215,1	98,48
215,478	96,24
215,855	95,3
216,233	96,76
216,611	97,11
216,988	97,87
217,366	97,49
217,743	99
218,121	99,58
218,498	101,55
218,876	104,58
219,253	106,99
219,631	106,47
220,008	105,32
220,385	105,63
220,762	103,99
221,14	105,76
221,517	104
221,894	104,13
222,271	106,72
222,648	111,18
223,025	112,91
223,402	113,56
223,78	112,92
224,157	109,78
224,533	106,87
224,91	105,72
225,287	106,4
225,664	106,47
226,041	107,9
226,418	105,99
226,795	105,04
227,171	107,14
227,548	108,73
227,925	109,63
228,301	112,64
228,678	116,32
229,055	121,48
229,431	127,15
229,808	127,78
230,184	131,67
230,561	131,65
230,937	135,98
231,313	138,13
231,69	140,37
232,066	152,83
232,442	163,3
232,819	165,83
233,195	163,89
233,571	166,75
233,947	162,74
234,323	168,73
234,699	176
235,075	175,33
235,451	174,82
235,827	183,09
236,203	188,8
236,579	189,96
236,955	188,92
237,331	194,09
237,707	206,86
238,083	210,73
238,459	232,77
238,834	260,94
239,21	336,28
239,586	427,21
239,961	504,75
240,337	640,73
240,713	1045,14
241,088	4898,11
241,464	-4196,72
241,839	-2532,04
242,215	-1614,72
242,59	-833,85
242,965	-332,44
243,341	-177,21
243,716	-118,61
244,091	-85,45
244,467	-67,36
244,842	-56,65
245,217	-50,01
245,592	-45,43
245,967	-48,65
246,343	-49,95
246,718	-52,96
247,093	-53,91
247,468	-54,44
247,843	-52,4
248,218	-50,26
248,593	-46,7
248,967	-42,59
249,342	-38,58
249,717	-38,07
250,092	-37,86
250,467	-38
250,841	-38,73
251,216	-38,59
251,591	-41,01
251,965	-46,05
252,34	-50,63
252,714	-59,03
253,089	-68,87
253,463	-73,34
253,838	-68,62
254,212	-64,59
254,587	-55,68
254,961	-51,39
255,335	-44,95
255,71	-40,18
256,084	-30,67
256,458	-25,6
256,832	-22,82
257,206	-22
257,581	-19,4
257,955	-18,66
258,329	-18,6
258,703	-18,47
259,077	-18,38
259,451	-18,03
259,825	-18,35
260,199	-18,55
260,572	-16,95
260,946	-15,51
261,32	-14,98
261,694	-14,17
262,068	-13,21
262,441	-12,75
262,815	-12
263,189	-11,5
263,562	-10,63
263,936	-11,21
264,309	-11,42
264,683	-12,12
265,056	-12,16
265,43	-12,01
265,803	-11,39
266,176	-11,13
266,55	-10,88
266,923	-10,76
267,296	-9,91
267,67	-8,8
268,043	-7,58
268,416	-7,07
268,789	-7,41
269,162	-6,64
269,535	-5,89
269,908	-5,73
270,281	-5,67
270,654	-5,32
271,027	-5,27
271,4	-5,45
271,773	-6,43
272,146	-7,28
272,519	-7,55
272,891	-8,11
273,264	-8,41
273,637	-8,15
274,01	-7,94
274,382	-7,54
274,755	-6,97
275,127	-7,1
275,5	-7,69
275,872	-7,91
276,245	-8,23
276,617	-7,31
276,99	-6,98
277,362	-7,22
277,734	-7,78
278,107	-7,68
278,479	-7,7
278,851	-7,94
279,223	-7,44
279,596	-6,23
279,968	-5,67
280,34	-5,36
280,712	-5,06
281,084	-4,68
281,456	-4,78
281,828	-4,12
282,2	-3,48
282,572	-3,4
282,944	-3,02
283,315	-2,29
283,687	-2,13
284,059	-1,91
284,431	-2,22
284,802	-2,54
285,174	-2,37
285,546	-2,01
285,917	-2,05
286,289	-1,97
286,66	-1,48
287,032	-1,23
287,403	-1,39
287,775	-1,43
288,146	-1,43
288,518	-1,24
288,889	-0,73
289,26	-0,09
289,632	0,01
290,003	-0,33
290,374	0,01
290,745	-0,09
291,116	-0,69
291,487	-0,98
291,858	-0,9
292,229	-0,62
292,6	-0,06
292,971	0,22
293,342	0,77
293,713	1,19
294,084	1,32
294,455	1,38
294,826	1,36
295,196	1,23
295,567	1,36
295,938	1,77
296,308	2,14
296,679	1,95
297,05	1,73
297,42	1,77
297,791	1,72
298,161	1,51
298,532	1,79
298,902	2,34
299,272	2,68
299,643	2,5
300,013	2,74
300,383	3,1
300,754	3,19
301,124	2,9
301,494	2,78
301,864	2,79
302,234	2,62
302,604	2,33
302,974	2,46
303,344	2,38
303,714	2,23
304,084	2,23
304,454	2,5
304,824	2,68
305,194	2,75
305,563	3,14
305,933	3,4
306,303	3,22
306,673	3,19
307,042	3,22
307,412	3,52
307,781	3,64
308,151	3,41
308,521	3,32
308,89	3,56
309,259	3,63
309,629	3,76
309,998	3,81
310,368	3,9
310,737	4,27
311,106	4,74
311,475	4,78
311,845	4,66
312,214	4,38
312,583	4,34
312,952	4,34
313,321	4,22
313,69	4,04
314,059	4,16
314,428	4,09
314,797	4,09
315,166	4,05
315,535	4,02
315,904	4,13
316,272	4,03
316,641	4,02
317,01	3,98
317,379	3,93
317,747	3,97
318,116	4,04
318,484	3,79
318,853	3,63
319,221	3,58
319,59	3,61
319,958	3,8
320,327	3,83
320,695	3,78
321,063	3,81
321,432	3,88
321,8	3,82
322,168	3,92
322,536	3,9
322,905	3,98
323,273	3,78
323,641	3,68
324,009	3,86
324,377	3,95
324,745	4,09
325,113	4,02
325,481	4,08
325,849	4,1
326,216	4,18
326,584	4,18
326,952	4,45
327,32	4,61
327,687	4,69
328,055	4,7
328,423	4,76
328,79	4,76
329,158	4,85
329,525	4,97
329,893	4,99
330,26	4,99
330,628	5,09
330,995	5,25
331,362	5,21
331,73	5,06
332,097	5,01
332,464	4,95
332,831	5,07
333,199	5,05
333,566	5,12
333,933	4,92
334,3	4,83
334,667	4,51
335,034	4,48
335,401	4,53
335,768	4,56
336,135	4,57
336,502	4,67
336,868	4,65
337,235	4,56
337,602	4,6
337,969	4,71
338,335	4,72
338,702	4,74
339,069	4,74
339,435	4,78
339,802	4,77
340,168	4,71
340,535	4,61
340,901	4,58
341,267	4,57
341,634	4,82
342	4,94
342,366	5,12
342,733	5,26
343,099	5,22
343,465	5,3
343,831	5,41
344,197	5,51
344,563	5,6
344,929	5,7
345,295	5,74
345,661	5,75
346,027	5,81
346,393	5,82
346,759	5,86
347,125	5,87
347,491	5,87
347,856	6,07
348,222	6,27
348,588	6,27
348,953	6,28
349,319	6,27
349,684	6,2
350,05	6,11
350,415	5,94
350,781	5,78
351,146	5,66
351,512	5,58
351,877	5,52
352,242	5,51
352,608	5,45
352,973	5,5
353,338	5,55
353,703	5,54
354,068	5,59
354,433	5,64
354,798	5,65
355,164	5,68
355,528	5,54
355,893	5,49
356,258	5,56
356,623	5,55
356,988	5,52
357,353	5,53
357,718	5,56
358,082	5,57
358,447	5,67
358,812	5,77
359,176	5,82
359,541	5,78
359,905	5,74
360,27	5,81
360,634	5,85
360,999	5,88
361,363	5,89
361,728	5,95
362,092	5,96
362,456	5,97
362,821	5,96
363,185	6,03
363,549	6,02
363,913	6,05
364,277	6,17
364,641	6,18
365,005	6,2
365,369	6,26
365,733	6,3
366,097	6,3
366,461	6,28
366,825	6,31
367,189	6,38
367,553	6,45
367,916	6,45
368,28	6,49
368,644	6,49
369,007	6,54
369,371	6,52
369,734	6,6
370,098	6,71
370,461	6,79
370,825	6,85
371,188	6,88
371,552	6,92
371,915	6,95
372,278	7,06
372,642	7,17
373,005	7,24
373,368	7,31
373,731	7,4
374,094	7,47
374,457	7,51
374,82	7,55
375,183	7,61
375,546	7,68
375,909	7,72
376,272	7,79
376,635	7,81
376,998	7,8
377,361	7,82
377,723	7,86
378,086	7,9
378,449	7,98
378,811	8,09
379,174	8,15
379,537	8,13
379,899	8,13
380,262	8,13
380,624	8,14
380,987	8,19
381,349	8,24
381,711	8,29
382,074	8,28
382,436	8,31
382,798	8,42
383,16	8,35
383,522	8,3
383,884	8,25
384,247	8,26
384,609	8,31
384,971	8,35
385,333	8,34
385,695	8,36
386,056	8,35
386,418	8,31
386,78	8,32
387,142	8,28
387,504	8,23
387,865	8,23
388,227	8,23
388,589	8,23
388,95	8,22
389,312	8,16
389,673	8,21
390,035	8,17
390,396	8,09
390,758	8,11
391,119	8,13
391,48	8,14
391,842	8,15
392,203	8,14
392,564	8,16
392,925	8,16
393,286	8,09
393,648	8,07
394,009	8,07
394,37	8,09
394,731	8,1
395,092	8,13
395,452	8,12
395,813	8,1
396,174	8,09
396,535	8,11
396,896	8,13
397,257	8,11
397,617	8,15
397,978	8,2
398,338	8,19
398,699	8,21
399,06	8,32
399,42	8,28
399,781	8,27
400,141	8,23
400,501	8,24
400,862	8,31
401,222	8,28
401,582	8,29
401,943	8,26
402,303	8,27
402,663	8,26
403,023	8,27
403,383	8,26
403,743	8,26
404,103	8,27
404,463	8,3
404,823	8,33
405,183	8,35
405,543	8,34
405,903	8,39
406,262	8,37
406,622	8,26
406,982	8,32
407,342	8,34
407,701	8,34
408,061	8,36
408,42	8,36
408,78	8,4
409,139	8,42
409,499	8,39
409,858	8,42
410,217	8,46
410,577	8,48
410,936	8,55
411,295	8,55
411,655	8,54
412,014	8,56
412,373	8,53
412,732	8,5
413,091	8,48
413,45	8,46
413,809	8,46
414,168	8,47
414,527	8,39
414,886	8,37
415,245	8,33
415,603	8,27
415,962	8,24
416,321	8,22
416,679	8,18
417,038	8,19
417,397	8,18
417,755	8,15
418,114	8,13
418,472	8,12
418,831	8,13
419,189	8,14
419,547	8,13
419,906	8,14
420,264	8,17
420,622	8,19
420,981	8,22
421,339	8,24
421,697	8,28
422,055	8,32
422,413	8,35
422,771	8,41
423,129	8,47
423,487	8,54
423,845	8,6
424,203	8,67
424,56	8,72
424,918	8,79
425,276	8,89
425,634	8,98
425,991	9,06
426,349	9,13
426,707	9,22
427,064	9,29
427,422	9,37
427,779	9,48
428,137	9,59
428,494	9,7
428,851	9,84
429,209	9,92
429,566	10,03
429,923	10,13
430,28	10,17
430,637	10,29
430,995	10,29
431,352	10,33
431,709	10,37
432,066	10,45
432,423	10,49
432,78	10,54
433,137	10,6
433,493	10,66
433,85	10,77
434,207	10,74
434,564	10,8
434,92	10,86
435,277	10,89
435,634	10,93
435,99	10,97
436,347	10,99
436,703	11,1
437,06	11,17
437,416	11,22
437,773	11,26
438,129	11,26
438,485	11,37
438,841	11,39
439,198	11,43
439,554	11,46
439,91	11,51
440,266	11,54
440,622	11,58
440,978	11,6
441,334	11,62
441,69	11,71
442,046	11,76
442,402	11,79
442,758	11,85
443,113	11,89
443,469	11,94
443,825	11,99
444,181	12,02
444,536	12,08
444,892	12,13
445,247	12,19
445,603	12,25
445,958	12,27
446,314	12,33
446,669	12,38
447,025	12,44
447,38	12,48
447,735	12,51
448,09	12,55
448,446	12,59
448,801	12,62
449,156	12,66
449,511	12,73
449,866	12,8
450,221	12,85
450,576	12,94
450,931	13,03
451,286	13,11
451,641	13,17
451,995	13,21
452,35	13,29
452,705	13,31
453,06	13,35
453,414	13,38
453,769	13,41
454,123	13,42
454,478	13,46
454,832	13,49
455,187	13,48
455,541	13,49
455,896	13,5
456,25	13,5
456,604	13,5
456,958	13,5
457,313	13,49
457,667	13,51
458,021	13,52
458,375	13,53
458,729	13,54
459,083	13,56
459,437	13,57
459,791	13,55
460,145	13,58
460,499	13,59
460,852	13,59
461,206	13,62
461,56	13,64
461,914	13,64
462,267	13,63
462,621	13,68
462,974	13,69
463,328	13,74
463,681	13,77
464,035	13,81
464,388	13,85
464,742	13,9
465,095	13,94
465,448	13,96
465,801	13,95
466,155	13,97
466,508	13,97
466,861	13,97
467,214	13,99
467,567	14,01
467,92	14,03
468,273	14,03
468,626	14,03
468,979	14,02
469,332	14,01
469,684	14,02
470,037	14,06
470,39	14,08
470,743	14,09
471,095	14,12
471,448	14,15
471,8	14,17
472,153	14,16
472,505	14,17
472,858	14,19
473,21	14,2
473,562	14,21
473,915	14,23
474,267	14,25
474,619	14,27
474,971	14,26
475,324	14,26
475,676	14,32
476,028	14,3
476,38	14,32
476,732	14,3
477,084	14,28
477,436	14,25
477,787	14,24
478,139	14,22
478,491	14,19
478,843	14,16
479,195	14,14
479,546	14,08
479,898	14,04
480,249	14
480,601	13,97
480,952	13,93
481,304	13,92
481,655	13,9
482,007	13,87
482,358	13,87
482,709	13,85
483,061	13,8
483,412	13,8
483,763	13,79
484,114	13,81
484,465	13,79
484,816	13,78
485,167	13,78
485,518	13,77
485,869	13,77
486,22	13,77
486,571	13,78
486,922	13,8
487,272	13,8
487,623	13,81
487,974	13,82
488,324	13,85
488,675	13,85
489,025	13,86
489,376	13,89
489,726	13,9
490,077	13,92
490,427	13,97
490,778	13,99
491,128	14,03
491,478	14,06
491,828	14,13
492,179	14,17
492,529	14,22
492,879	14,28
493,229	14,32
493,579	14,36
493,929	14,37
494,279	14,42
494,629	14,45
494,979	14,49
495,328	14,54
495,678	14,58
496,028	14,67
496,378	14,73
496,727	14,8
497,077	14,85
497,426	14,93
497,776	14,95
498,125	14,99
498,475	15,02
498,824	15,05
499,174	15,08
499,523	15,11
499,872	15,14
500,221	15,2
500,571	15,25
500,92	15,31
501,269	15,42
501,618	15,47
501,967	15,55
502,316	15,62
502,665	15,68
503,014	15,75
503,363	15,81
503,711	15,87
504,06	15,94
504,409	16
504,758	16,05
505,106	16,14
505,455	16,22
505,803	16,28
506,152	16,32
506,5	16,39
506,849	16,47
507,197	16,54
507,546	16,59
507,894	16,67
508,242	16,76
508,59	16,8
508,939	16,87
509,287	16,96
509,635	17,04
509,983	17,11
510,331	17,21
510,679	17,31
511,027	17,39
511,375	17,49
511,723	17,59
512,07	17,69
512,418	17,8
512,766	17,9
513,114	18,02
513,461	18,16
513,809	18,26
514,156	18,38
514,504	18,5
514,851	18,63
515,199	18,75
515,546	18,88
515,893	19,01
516,241	19,14
516,588	19,24
516,935	19,36
517,282	19,47
517,63	19,56
517,977	19,65
518,324	19,76
518,671	19,86
519,018	19,96
519,365	20,02
519,711	20,12
520,058	20,22
520,405	20,29
520,752	20,39
521,099	20,51
521,445	20,63
521,792	20,75
522,138	20,88
522,485	21,01
522,832	21,14
523,178	21,27
523,524	21,39
523,871	21,49
524,217	21,6
524,563	21,72
524,91	21,84
525,256	22
525,602	22,13
525,948	22,23
526,294	22,29
526,64	22,36
526,986	22,39
527,332	22,43
527,678	22,48
528,024	22,54
528,37	22,6
528,716	22,62
529,061	22,67
529,407	22,72
529,753	22,77
530,098	22,84
530,444	22,9
530,789	22,94
531,135	23
531,48	23,04
531,826	23,08
532,171	23,16
532,516	23,2
532,862	23,27
533,207	23,32
533,552	23,39
533,897	23,46
534,242	23,52
534,587	23,58
534,932	23,65
535,277	23,67
535,622	23,68
535,967	23,74
536,312	23,8
536,657	23,84
537,001	23,92
537,346	23,97
537,691	24
538,035	24,05
538,38	24,08
538,724	24,11
539,069	24,15
539,413	24,16
539,758	24,17
540,102	24,2
540,446	24,2
540,791	24,21
541,135	24,23
541,479	24,24
541,823	24,26
542,167	24,25
542,512	24,31
542,856	24,29
543,2	24,3
543,543	24,29
543,887	24,31
544,231	24,34
544,575	24,34
544,919	24,36
545,262	24,39
545,606	24,42
545,95	24,42
546,293	24,45
546,637	24,48
546,98	24,52
547,324	24,54
547,667	24,61
548,011	24,66
548,354	24,67
548,697	24,69
549,04	24,7
549,384	24,73
549,727	24,69
550,07	24,75
550,413	24,78
550,756	24,82
551,099	24,84
551,442	24,82
551,785	24,87
552,128	24,88
552,47	24,87
552,813	24,87
553,156	24,9
553,499	24,88
553,841	24,86
554,184	24,84
554,526	24,82
554,869	24,76
555,211	24,71
555,554	24,69
555,896	24,69
556,238	24,67
556,581	24,64
556,923	24,61
557,265	24,58
557,607	24,52
557,949	24,48
558,291	24,43
558,633	24,37
558,975	24,3
559,317	24,26
559,659	24,25
560,001	24,19
560,343	24,16
560,685	24,13
561,026	24,07
561,368	24,04
561,71	23,96
562,051	23,93
562,393	23,91
562,734	23,8
563,076	23,71
563,417	23,65
563,759	23,59
564,1	23,55
564,441	23,5
564,782	23,43
565,124	23,34
565,465	23,3
565,806	23,28
566,147	23,22
566,488	23,19
566,829	23,13
567,17	23,07
567,511	22,98
567,851	22,93
568,192	22,87
568,533	22,78
568,874	22,73
569,214	22,65
569,555	22,54
569,895	22,5
570,236	22,44
570,576	22,34
570,917	22,25
571,257	22,18
571,598	22,11
571,938	22,06
572,278	21,99
572,618	21,89
572,959	21,82
573,299	21,76
573,639	21,66
573,979	21,61
574,319	21,54
574,659	21,49
574,999	21,41
575,339	21,33
575,678	21,25
576,018	21,17
576,358	21,1
576,698	21,07
577,037	21,07
577,377	21,03
577,716	21
578,056	20,95
578,395	20,86
578,735	20,79
579,074	20,72
579,413	20,68
579,753	20,68
580,092	20,58
580,431	20,53
580,77	20,52
581,109	20,45
581,448	20,41
581,787	20,36
582,126	20,31
582,465	20,3
582,804	20,31
583,143	20,36
583,482	20,29
583,82	20,24
584,159	20,16
584,498	20,11
584,836	20,11
585,175	20,1
585,514	20,09
585,852	20,1
586,19	20,09
586,529	20,03
586,867	19,98
587,205	19,97
587,544	19,97
587,882	19,91
588,22	19,9
588,558	19,89
588,896	19,88
589,234	19,84
589,572	19,82
589,91	19,81
590,248	19,7
590,586	19,7
590,924	19,69
591,262	19,65
591,599	19,59
591,937	19,57
592,275	19,55
592,612	19,52
592,95	19,45
593,287	19,42
593,625	19,41
593,962	19,43
594,299	19,45
594,637	19,42
594,974	19,4
595,311	19,38
595,648	19,36
595,985	19,37
596,322	19,37
596,659	19,41
596,996	19,39
597,333	19,34
597,67	19,34
598,007	19,34
598,344	19,36
598,681	19,43
599,017	19,35
599,354	19,3
599,691	19,29
600,027	19,36
600,364	19,32
600,7	19,3
601,037	19,27
601,373	19,23
601,71	19,2
602,046	19,21
602,382	19,17
602,718	19,17
603,054	19,12
603,391	19,12
603,727	19,03
604,063	19
604,399	19
604,735	18,97
605,071	18,9
605,406	18,87
605,742	18,8
606,078	18,82
606,414	18,81
606,749	18,79
607,085	18,7
607,421	18,68
607,756	18,64
608,092	18,6
608,427	18,54
608,762	18,48
609,098	18,4
609,433	18,33
609,768	18,26
610,104	18,24
610,439	18,17
610,774	18,18
611,109	18,11
611,444	18,11
611,779	18,08
612,114	18,06
612,449	18,04
612,784	17,96
613,118	17,89
613,453	17,84
613,788	17,78
614,123	17,74
614,457	17,72
614,792	17,65
615,126	17,61
615,461	17,59
615,795	17,55
616,13	17,52
616,464	17,5
616,798	17,5
617,132	17,46
617,467	17,41
617,801	17,33
618,135	17,33
618,469	17,24
618,803	17,2
619,137	17,21
619,471	17,11
619,805	17,08
620,139	17,01
620,472	16,96
620,806	16,92
621,14	16,88
621,473	16,86
621,807	16,85
622,141	16,85
622,474	16,79
622,808	16,8
623,141	16,83
623,474	16,8
623,808	16,78
624,141	16,78
624,474	16,81
624,807	16,77
625,141	16,75
625,474	16,8
625,807	16,81
626,14	16,78
626,473	16,8
626,806	16,84
627,138	16,9
627,471	16,91
627,804	16,9
628,137	16,94
628,469	16,86
628,802	16,86
629,135	16,83
629,467	16,88
629,8	16,84
630,132	16,81
630,465	16,84
630,797	16,83
631,129	16,78
631,461	16,75
631,794	16,84
632,126	16,79
632,458	16,76
632,79	16,72
633,122	16,7
633,454	16,68
633,786	16,62
634,118	16,58
634,45	16,6
634,781	16,58
635,113	16,52
635,445	16,53
635,777	16,52
636,108	16,5
636,44	16,43
636,771	16,47
637,103	16,46
637,434	16,41
637,765	16,35
638,097	16,4
638,428	16,35
638,759	16,19
639,09	16,2
639,422	16,17
639,753	16,16
640,084	16,09
640,415	16,06
640,746	16,12
641,077	16,04
641,407	15,98
641,738	15,97
642,069	15,89
642,4	15,89
642,73	15,86
643,061	15,81
643,392	15,8
643,722	15,71
644,053	15,66
644,383	15,65
644,713	15,61
645,044	15,48
645,374	15,48
645,704	15,49
646,034	15,42
646,365	15,38
646,695	15,4
647,025	15,4
647,355	15,31
647,685	15,15
648,015	15,16
648,344	15,17
648,674	15,11
649,004	15,08
649,334	15,02
649,663	14,98
649,993	14,98
650,323	14,9
650,652	14,87
650,982	14,84
651,311	14,77
651,64	14,75
651,97	14,77
652,299	14,72
652,628	14,68
652,958	14,69
653,287	14,74
653,616	14,59
653,945	14,52
654,274	14,53
654,603	14,55
654,932	14,53
655,261	14,47
655,589	14,43
655,918	14,46
656,247	14,42
656,576	14,43
656,904	14,34
657,233	14,38
657,561	14,3
657,89	14,25
658,218	14,21
658,547	14,18
658,875	14,13
659,203	14,09
659,532	14,05
659,86	14,02
660,188	13,93
660,516	13,92
660,844	13,91
661,172	13,9
661,5	13,87
661,828	13,82
662,156	13,74
662,484	13,69
662,811	13,62
663,139	13,54
663,467	13,39
663,794	13,36
664,122	13,27
664,45	13,3
664,777	13,31
665,104	13,32
665,432	13,22
665,759	13,1
666,086	13,06
666,414	12,92
666,741	12,82
667,068	12,7
667,395	12,68
667,722	12,64
668,049	12,58
668,376	12,5
668,703	12,42
669,03	12,41
669,357	12,33
669,683	12,27
670,01	12,26
670,337	12,28
670,663	12,26
670,99	12,19
671,317	12,1
671,643	12,01
671,969	11,89
672,296	11,89
672,622	11,93
672,948	11,89
673,275	11,93
673,601	11,95
673,927	11,95
674,253	11,94
674,579	11,93
674,905	11,9
675,231	11,89
675,557	11,93
675,883	11,98
676,209	12
676,534	11,96
676,86	11,93
677,186	11,93
677,511	11,95
677,837	11,96
678,162	11,99
678,488	12
678,813	12,08
679,139	12,11
679,464	12,11
679,789	12,15
680,114	12,18
680,44	12,23
680,765	12,28
681,09	12,27
681,415	12,33
681,74	12,38
682,065	12,41
682,39	12,41
682,714	12,46
683,039	12,46
683,364	12,61
683,689	12,73
684,013	12,79
684,338	12,85
684,662	12,98
684,987	13,03
685,311	13,13
685,636	13,17
685,96	13,27
686,284	13,38
686,608	13,52
686,933	13,6
687,257	13,71
687,581	13,87
687,905	13,95
688,229	14,04
688,553	14,16
688,877	14,35
689,201	14,53
689,524	14,68
689,848	14,91
690,172	15,01
690,496	15,14
690,819	15,32
691,143	15,49
691,466	15,63
691,79	15,85
692,113	16,12
692,436	16,3
692,76	16,54
693,083	16,76
693,406	16,98
693,729	17,23
694,053	17,5
694,376	17,74
694,699	18,06
695,022	18,38
695,344	18,74
695,667	19,1
695,99	19,49
696,313	19,72
696,636	19,95
696,958	20,27
697,281	20,52
697,604	20,77
697,926	20,98
698,249	21,37
698,571	21,53
698,893	21,67
699,216	21,9
699,538	22,09
699,86	22,31
700,182	22,53
700,504	22,82
700,827	23,1
701,149	23,35
701,471	23,63
701,793	23,89
702,114	24,21
702,436	24,51
702,758	24,8
703,08	25,3
703,401	25,69
703,723	25,96
704,045	26,22
704,366	26,53
704,688	26,85
705,009	27,03
705,331	27,56
705,652	27,82
705,973	28,21
706,294	28,48
706,616	28,74
706,937	29,09
707,258	29,37
707,579	29,6
707,9	29,91
708,221	30,26
708,542	30,66
708,863	30,89
709,183	31,24
709,504	31,56
709,825	31,82
710,145	32,21
710,466	32,52
710,787	32,92
711,107	33,33
711,427	33,73
711,748	34,04
712,068	34,31
712,388	34,73
712,709	35,11
713,029	35,56
713,349	35,94
713,669	36,27
713,989	36,6
714,309	36,9
714,629	37,24
714,949	37,64
715,269	37,92
715,589	38,33
715,908	38,72
716,228	39,04
716,548	39,43
716,867	39,8
717,187	40,24
717,506	40,66
717,826	41,1
718,145	41,48
718,465	41,81
718,784	42,19
719,103	42,62
719,422	43,04
719,741	43,58
720,061	44,2
720,38	44,58
720,699	44,99
721,018	45,61
721,336	46,02
721,655	46,39
721,974	46,79
722,293	47,21
722,612	47,71
722,93	48,13
723,249	48,66
723,567	49,13
723,886	49,6
724,204	50,11
724,523	50,55
724,841	50,92
725,159	51,55
725,477	52
725,796	52,47
726,114	53,08
726,432	53,51
726,75	53,73
727,068	54,17
727,386	54,63
727,704	55,09
728,022	55,52
728,339	55,85
728,657	56,33
728,975	56,85
729,292	57,06
729,61	57,51
729,928	57,74
730,245	58,11
730,562	58,44
730,88	58,86
731,197	59,05
731,514	59,48
731,832	59,83
732,149	60,24
732,466	60,58
732,783	60,74
733,1	61,01
733,417	61,46
733,734	61,96
734,051	62,37
734,368	62,52
734,684	62,96
735,001	63,43
735,318	63,83
735,634	64,05
735,951	64,39
736,268	64,73
736,584	65,09
736,9	65,43
737,217	65,84
737,533	66,08
737,849	66,56
738,166	66,9
738,482	67,08
738,798	67,28
739,114	67,56
739,43	67,86
739,746	68,14
740,062	68,46
740,378	68,61
740,693	68,75
741,009	69,21
741,325	69,37
741,641	69,53
741,956	69,72
742,272	70,2
742,587	70,72
742,903	71,06
743,218	71,31
743,533	71,65
743,849	72,02
744,164	72,12
744,479	72,39
744,794	72,61
745,109	72,92
745,424	73,17
745,739	73,33
746,054	73,54
746,369	73,7
746,684	73,76
746,999	74,03
747,313	74,27
747,628	74,23
747,943	74,33
748,257	74,59
748,572	74,72
748,886	74,61
749,201	74,71
749,515	74,7
749,829	74,83
750,144	74,97
750,458	75,02
750,772	75,27
751,086	75,45
751,4	75,42
751,714	75,53
752,028	75,76
752,342	75,86
752,656	75,93
752,97	75,86
753,284	76
753,597	75,83
753,911	76,01
754,225	76,22
754,538	76,51
754,852	76,64
755,165	76,77
755,478	77,01
755,792	77,08
756,105	77,06
756,418	77,26
756,731	77,2
757,045	77,14
757,358	77,23
757,671	77,08
757,984	77,3
758,297	77,48
758,609	77,33
758,922	77,44
759,235	77,49
759,548	77,7
759,86	77,63
760,173	77,85
760,486	77,75
760,798	77,73
761,111	77,54
761,423	77,47
761,735	77,41
762,048	77,28
762,36	77,41
762,672	77,72
762,984	77,74
763,296	77,67
763,608	77,75
763,92	77,7
764,232	77,69
764,544	77,79
764,856	77,63
765,168	77,8
765,48	77,81
765,791	77,75
766,103	77,9
766,414	78,06
766,726	77,97
767,037	78,16
767,349	78,3
767,66	78,62
767,972	78,91
768,283	79,11
768,594	79,29
768,905	79,3
769,216	78,98
769,527	78,94
769,838	79,11
770,149	79,22
770,46	79,47
770,771	79,87
771,082	79,87
771,393	79,95
771,703	79,93
772,014	80,08
772,324	80,32
772,635	80,33
772,945	80,43
773,256	80,66
773,566	80,59
773,877	80,6
774,187	80,7
774,497	80,5
774,807	80,58
775,117	80,82
775,427	80,77
775,737	81,2
776,047	81,37
776,357	81,65
776,667	81,51
776,977	81,5
777,287	81,22
777,596	81,21
777,906	81,47
778,216	81,42
778,525	81,41
778,835	81,49
779,144	82,45
779,453	82,25
779,763	82,39
780,072	82,31
780,381	82,36
780,69	82,09
781	82,29
781,309	82,23
781,618	82,03
781,927	81,96
782,235	82,05
782,544	82,02
782,853	81,94
783,162	82,3
783,471	82,42
783,779	82,81
784,088	82,92
784,396	82,65
784,705	82,62
785,013	82,46
785,322	82,37
785,63	81,1
785,938	81,27
786,246	81,11
786,554	81,21
786,863	81,23
787,171	81,49
787,479	81,36
787,787	81,63
788,094	81,75
788,402	81,92
788,71	81,71
789,018	82,09
789,326	81,96
789,633	81,95
789,941	82,03
790,248	81,81
790,556	81,78
790,863	81,94
791,171	82,05
791,478	82,23
791,785	82,28
792,092	82,55
792,399	82,41
792,707	82,48
793,014	82,86
793,321	82,85
793,628	82,67
793,934	82,67
794,241	82,37
794,548	82,31
794,855	82,26
795,161	81,99
795,468	81,65
795,775	81,84
796,081	81,53
796,388	81,36
796,694	81,32
797	81,16
797,307	81,11
797,613	81,35
797,919	81,46
798,225	81,72
798,531	81,49
798,837	81,9
799,143	81,85
799,449	81,83
799,755	82,04
800,061	82,25
800,367	82,53
800,672	82,81
800,978	83,08
801,284	82,91
801,589	83,24
801,895	83,07
802,2	82,53
802,506	82,79
802,811	82,68
803,116	82,92
803,421	83
803,727	83,03
804,032	82,7
804,337	82,67
804,642	82,67
804,947	82,76
805,252	82,55
805,556	82,73
805,861	82,54
806,166	82,27
806,471	82,03
806,775	81,59
807,08	81,46
807,384	81,57
807,689	81,64
807,993	81,33
808,298	81,71
808,602	82,27
808,906	81,79
809,211	81,75
809,515	81,54
809,819	81,86
810,123	81,74
810,427	81,64
810,731	81,68
811,035	81,73
811,338	81,98
811,642	82,14
811,946	82,03
812,25	81,72
812,553	81,75
812,857	81,87
813,16	82,45
813,464	82,38
813,767	82,11
814,07	82,37
814,374	82,31
814,677	82,14
814,98	82,05
815,283	82,45
815,586	82,66
815,889	82,76
816,192	82,59
816,495	82,83
816,798	82,98
817,101	82,69
817,404	82,43
817,706	81,71
818,009	81,4
818,312	81,45
818,614	81,28
818,917	80,89
819,219	80,15
819,521	79,33
819,824	78,78
820,126	78,33
820,428	77,95
820,73	78,08
821,032	77,99
821,334	77,98
821,636	78,05
821,938	78,28
822,24	78,34
822,542	78,38
822,844	78,31
823,145	78,35
823,447	78,44
823,749	78,49
824,05	78,47
824,352	78,43
824,653	78,43
824,955	78,45
825,256	78,47
825,557	78,65
825,858	78,9
826,16	79,16
826,461	79,54
826,762	79,75
827,063	79,9
827,364	80,16
827,665	80,4
827,965	80,54
828,266	80,34
828,567	80,28
828,868	80,27
829,168	80,49
829,469	80,36
829,769	80,32
830,07	80,29
830,37	80,43
830,67	80,71
830,971	80,72
831,271	80,76
831,571	81,02
831,871	81
832,171	80,76
832,471	80,88
832,771	80,42
833,071	80,88
833,371	80,81
833,671	80,91
833,971	80,8
834,27	80,57
834,57	80,69
834,869	80,88
835,169	80,74
835,468	80,8
835,768	81,21
836,067	81,19
836,367	81,1
836,666	81,27
836,965	81,44
837,264	81,5
837,563	81,98
837,862	82,15
838,161	82,24
838,46	82,41
838,759	82,57
839,058	83,25
839,356	83,39
839,655	83,49
839,954	83,82
840,252	83,9
840,551	84,48
840,849	84,82
841,148	84,65
841,446	85
841,744	85,45
842,043	85,44
842,341	85,32
842,639	85,76
842,937	86,3
843,235	86,32
843,533	86,53
843,831	86,51
844,129	86,79
844,427	87,77
844,724	88,76
845,022	89,16
845,32	90,05
845,617	90,61
845,915	90,99
846,212	90,49
846,51	90,7
846,807	91,03
847,104	91,34
847,402	92,86
847,699	93,55
847,996	93,03
848,293	93,03
848,59	93,42
848,887	92,78
849,184	92,25
849,481	92,05
849,778	92,25
850,074	92,28
850,371	92,51
850,668	92,19
850,964	91,14
851,261	91,32
851,557	90,84
851,854	90,27
852,15	91,02
852,446	90,82
852,743	90,15
853,039	89,38
853,335	88,79
853,631	87,38
853,927	86,58
854,223	86,39
854,519	85,94
854,815	86,49
855,111	87,16
855,406	87,66
855,702	88,02
855,998	88,4
856,293	89,12
856,589	89,29
856,884	89,91
857,18	90,73
857,475	90,17
857,77	90,13
858,066	90,67
858,361	89,62
858,656	89,79
858,951	90,99
859,246	91,71
859,541	91,55
859,836	91,69
860,131	92,05
860,426	92,67
860,72	92,83
861,015	92,04
861,31	91,39
861,604	91,75
861,899	91,8
862,193	91,68
862,487	90,43
862,782	90,54
863,076	89,83
863,37	90,26
863,664	90,3
863,959	90,78
864,253	90,1
864,547	90,71
864,841	91,5
865,135	91,55
865,428	91,96
865,722	92,22
866,016	93,54
866,31	94,77
866,603	95,18
866,897	95,37
867,19	95,57
867,484	96,58
867,777	96,47
868,07	95,98
868,364	95,64
868,657	95,47
868,95	94,81
869,243	95
869,536	95,23
869,829	95,39
870,122	94,02
870,415	94,4
870,708	95,08
871	95,19
871,293	95,71
871,586	95,53
871,878	96,29
872,171	96,25
872,463	94,99
872,756	94,39
873,048	94,45
873,341	94,73
873,633	94,56
873,925	94,66
874,217	95,23
874,509	95,99
874,801	97,53
875,093	98,16
875,385	98,42
875,677	98
875,969	98,74
