Lind, O., Mitkus, M., Olsson, P., & Kelber, A. (2013). Ultraviolet sensitivity and colour vision in raptor foraging. Journal of Experimental Biology, 216(10), 1819-1826.

Olsson, P., Lind, O., & Kelber, A. (2017). Chromatic and achromatic vision: parameter choice and limitations for reliable model predictions. Behavioral Ecology, 29(2), 273-282

Conflict of Interests: The authors have no conflicts of interest to declare.


Data from palm_camino1_v_Reflection_00005.txt Node
Date: Fri Feb 11 16:28:33 ART 2022
User: Nati
Spectrometer: USB2E3644
Trigger mode: 4
Integration Time (sec): 4,100000E-2
Scans to average: 10
Electric dark correction enabled: true
Nonlinearity correction enabled: false
Boxcar width: 10
XAxis mode: Wavelengths
Number of Pixels in Spectrum: 2048
>>>>>Begin Spectral Data<<<<<
178,315	-21,59
178,696	-2500
179,076	-850
179,457	-7,92
179,838	-107,5
180,218	-580
180,599	50
180,979	37,5
181,36	157,46
181,74	47,2
182,121	36,81
182,501	24,55
182,881	-46,43
183,262	5,47
183,642	81,73
184,022	428,95
184,402	-756,25
184,783	-868,75
185,163	696,15
185,543	629,55
185,923	1028,95
186,303	-4210
186,683	-4450
187,063	-685,94
187,443	-329,05
187,823	-265,79
188,203	-168,4
188,583	-125,75
188,963	-73,24
189,343	-32,09
189,723	-26,99
190,102	-24,04
190,482	-31,73
190,862	-43,01
191,242	-30,4
191,621	-15,13
192,001	-0,91
192,38	-0,12
192,76	2,04
193,14	2,39
193,519	8,2
193,898	13,23
194,278	19,04
194,657	16,61
195,037	16,86
195,416	24,73
195,795	21,78
196,175	14,92
196,554	9,93
196,933	-3,86
197,312	-13,11
197,692	-15,34
198,071	-22,29
198,45	-18,68
198,829	-17,3
199,208	-20,36
199,587	-21,98
199,966	-24,43
200,345	-21,44
200,724	-17,86
201,103	-17,03
201,482	-24,75
201,86	-31,82
202,239	-28,87
202,618	-23,47
202,997	-25,12
203,375	-30,55
203,754	-31,47
204,133	-24,74
204,511	-18,39
204,89	-8,71
205,269	-12,02
205,647	-15,25
206,026	-3,64
206,404	-0,59
206,782	-1,13
207,161	1,56
207,539	6,1
207,918	0,48
208,296	-7,17
208,674	-14,15
209,052	-17,03
209,431	-3,61
209,809	-2,24
210,187	-1,67
210,565	0,46
210,943	3,23
211,321	2,18
211,699	-1,88
212,077	-15,08
212,455	-26,66
212,833	-19,77
213,211	-8,4
213,589	0,48
213,967	4,81
214,345	6,14
214,722	8,84
215,1	16,08
215,478	15,3
215,855	14,81
216,233	13,55
216,611	16,25
216,988	17,86
217,366	19,54
217,743	22,79
218,121	21,63
218,498	19,61
218,876	21,71
219,253	21,95
219,631	22,13
220,008	24,39
220,385	24,76
220,762	21,89
221,14	20,52
221,517	19,84
221,894	17,82
222,271	19,3
222,648	19,08
223,025	15,03
223,402	15,77
223,78	20,04
224,157	17,07
224,533	11,81
224,91	8,92
225,287	4,62
225,664	4,1
226,041	2,75
226,418	1,63
226,795	2,12
227,171	3,86
227,548	9,7
227,925	17,13
228,301	23,27
228,678	27,16
229,055	28,04
229,431	30,93
229,808	35,18
230,184	36,2
230,561	40,16
230,937	41,25
231,313	38,01
231,69	37,72
232,066	45,12
232,442	50,12
232,819	52,12
233,195	52,48
233,571	51,6
233,947	49,63
234,323	47
234,699	44,89
235,075	43,67
235,451	42,75
235,827	39,99
236,203	38,72
236,579	37,72
236,955	37,61
237,331	31,72
237,707	26,18
238,083	24,6
238,459	22,13
238,834	20,73
239,21	20,94
239,586	18,42
239,961	15,55
240,337	14,1
240,713	16,33
241,088	15,58
241,464	12,67
241,839	11,43
242,215	10,77
242,59	9,88
242,965	10,04
243,341	8,81
243,716	8,67
244,091	8,38
244,467	6,99
244,842	6,64
245,217	7,24
245,592	7,48
245,967	6,84
246,343	5,22
246,718	4,41
247,093	3,04
247,468	2,12
247,843	1,35
248,218	0,4
248,593	-1,07
248,967	-1,21
249,342	-0,96
249,717	-0,88
250,092	-1,25
250,467	-1,58
250,841	-1,95
251,216	-2,92
251,591	-4,08
251,965	-6,51
252,34	-5,69
252,714	-5,52
253,089	-5,31
253,463	-4,98
253,838	-3,81
254,212	-1,76
254,587	0,09
254,961	2,49
255,335	3,86
255,71	4,98
256,084	6,34
256,458	7,16
256,832	8,66
257,206	10,01
257,581	11,45
257,955	12,47
258,329	13,14
258,703	13,35
259,077	13,75
259,451	13,01
259,825	12,58
260,199	11,66
260,572	10,71
260,946	9,66
261,32	8,99
261,694	8,72
262,068	8,25
262,441	7,64
262,815	7,06
263,189	6,75
263,562	6,63
263,936	6,74
264,309	6,09
264,683	5,14
265,056	4,44
265,43	3,45
265,803	3,96
266,176	4,25
266,55	3,16
266,923	2,44
267,296	3,92
267,67	5,36
268,043	6,46
268,416	7,65
268,789	8,88
269,162	9,22
269,535	9,19
269,908	9,37
270,281	9,83
270,654	10,2
271,027	10,2
271,4	10,21
271,773	9,93
272,146	10,06
272,519	10,29
272,891	10,6
273,264	10,82
273,637	10,2
274,01	10,2
274,382	10,24
274,755	10,42
275,127	9,94
275,5	9,46
275,872	8,64
276,245	7,81
276,617	7,61
276,99	7,56
277,362	7,14
277,734	7,02
278,107	7,13
278,479	7,48
278,851	8,33
279,223	8,63
279,596	8,4
279,968	8,75
280,34	8,29
280,712	8,05
281,084	7,91
281,456	7,87
281,828	7,49
282,2	8,12
282,572	8,49
282,944	8,65
283,315	8,82
283,687	8,84
284,059	9,42
284,431	9,59
284,802	9,64
285,174	9,95
285,546	9,95
285,917	9,86
286,289	9,74
286,66	9,08
287,032	8,67
287,403	8,61
287,775	8,43
288,146	8,7
288,518	9,05
288,889	9,3
289,26	9,4
289,632	9,4
290,003	9,68
290,374	9,97
290,745	9,61
291,116	8,93
291,487	8,83
291,858	8,43
292,229	8,1
292,6	8,06
292,971	8,2
293,342	8,17
293,713	8,61
294,084	9,02
294,455	9,31
294,826	9,32
295,196	9,3
295,567	9,48
295,938	9,24
296,308	8,63
296,679	8,5
297,05	8,45
297,42	8,97
297,791	8,69
298,161	8,44
298,532	8,91
298,902	9,56
299,272	9,59
299,643	9,42
300,013	9,28
300,383	9,18
300,754	9,2
301,124	9,59
301,494	9,51
301,864	8,97
302,234	8,96
302,604	9,48
302,974	9,9
303,344	9,67
303,714	9,82
304,084	10,45
304,454	10,44
304,824	10,15
305,194	9,54
305,563	9,38
305,933	9,14
306,303	9,04
306,673	8,74
307,042	8,54
307,412	8,54
307,781	8,3
308,151	8,29
308,521	8,14
308,89	7,87
309,259	7,67
309,629	7,62
309,998	7,42
310,368	7,04
310,737	6,72
311,106	6,85
311,475	7,06
311,845	6,82
312,214	6,93
312,583	7,25
312,952	7,34
313,321	7,11
313,69	7,14
314,059	6,78
314,428	6,63
314,797	6,89
315,166	7,34
315,535	7,72
315,904	7,78
316,272	7,8
316,641	7,9
317,01	7,65
317,379	7,56
317,747	7,54
318,116	7,59
318,484	7,74
318,853	7,52
319,221	7,08
319,59	7,12
319,958	7,24
320,327	7,27
320,695	7,18
321,063	7,57
321,432	7,7
321,8	7,67
322,168	7,92
322,536	8,11
322,905	8,02
323,273	8,1
323,641	8,11
324,009	7,92
324,377	7,81
324,745	7,94
325,113	8,15
325,481	8,6
325,849	8,72
326,216	8,73
326,584	8,78
326,952	8,79
327,32	8,49
327,687	8,19
328,055	8,12
328,423	8,13
328,79	8,02
329,158	8,01
329,525	8,18
329,893	8,16
330,26	8,24
330,628	8,36
330,995	8,36
331,362	8,47
331,73	8,59
332,097	8,75
332,464	8,9
332,831	9,02
333,199	8,87
333,566	8,84
333,933	8,67
334,3	8,77
334,667	8,8
335,034	8,94
335,401	8,94
335,768	8,84
336,135	9
336,502	9,13
336,868	8,99
337,235	8,86
337,602	8,85
337,969	8,71
338,335	8,58
338,702	8,56
339,069	8,48
339,435	8,59
339,802	8,53
340,168	8,5
340,535	8,4
340,901	8,44
341,267	8,44
341,634	8,51
342	8,41
342,366	8,38
342,733	8,5
343,099	8,65
343,465	8,74
343,831	8,67
344,197	8,68
344,563	8,72
344,929	8,87
345,295	8,73
345,661	8,57
346,027	8,45
346,393	8,43
346,759	8,37
347,125	8,23
347,491	8,13
347,856	8,07
348,222	8,1
348,588	8,02
348,953	7,95
349,319	7,9
349,684	7,83
350,05	7,92
350,415	7,86
350,781	7,84
351,146	7,84
351,512	7,73
351,877	7,63
352,242	7,61
352,608	7,54
352,973	7,63
353,338	7,72
353,703	7,72
354,068	7,5
354,433	7,45
354,798	7,47
355,164	7,57
355,528	7,65
355,893	7,63
356,258	7,62
356,623	7,64
356,988	7,66
357,353	7,73
357,718	7,67
358,082	7,63
358,447	7,65
358,812	7,68
359,176	7,73
359,541	7,74
359,905	7,74
360,27	7,7
360,634	7,64
360,999	7,62
361,363	7,64
361,728	7,74
362,092	7,73
362,456	7,65
362,821	7,59
363,185	7,48
363,549	7,35
363,913	7,37
364,277	7,37
364,641	7,37
365,005	7,35
365,369	7,35
365,733	7,32
366,097	7,22
366,461	7,07
366,825	7,02
367,189	6,98
367,553	6,98
367,916	7,06
368,28	7,18
368,644	7,22
369,007	7,24
369,371	7,29
369,734	7,38
370,098	7,49
370,461	7,53
370,825	7,54
371,188	7,58
371,552	7,5
371,915	7,47
372,278	7,5
372,642	7,53
373,005	7,44
373,368	7,43
373,731	7,45
374,094	7,53
374,457	7,53
374,82	7,5
375,183	7,55
375,546	7,58
375,909	7,53
376,272	7,5
376,635	7,54
376,998	7,56
377,361	7,55
377,723	7,54
378,086	7,57
378,449	7,61
378,811	7,75
379,174	7,78
379,537	7,82
379,899	7,84
380,262	7,88
380,624	8,02
380,987	8,09
381,349	8,1
381,711	8,11
382,074	8,13
382,436	8,18
382,798	8,19
383,16	8,18
383,522	8,25
383,884	8,28
384,247	8,25
384,609	8,21
384,971	8,22
385,333	8,23
385,695	8,17
386,056	8,11
386,418	8,03
386,78	8,01
387,142	7,98
387,504	7,93
387,865	7,92
388,227	7,92
388,589	7,88
388,95	7,9
389,312	7,89
389,673	7,88
390,035	7,83
390,396	7,83
390,758	7,84
391,119	7,77
391,48	7,8
391,842	7,79
392,203	7,81
392,564	7,85
392,925	7,87
393,286	7,88
393,648	7,91
394,009	7,89
394,37	7,9
394,731	7,88
395,092	7,89
395,452	7,89
395,813	7,87
396,174	7,93
396,535	7,95
396,896	7,94
397,257	7,94
397,617	7,98
397,978	7,99
398,338	7,96
398,699	7,98
399,06	7,99
399,42	7,99
399,781	8,01
400,141	7,95
400,501	7,87
400,862	7,86
401,222	7,9
401,582	7,93
401,943	7,96
402,303	8,01
402,663	8,05
403,023	8,02
403,383	8,02
403,743	7,93
404,103	7,89
404,463	7,92
404,823	7,95
405,183	7,97
405,543	7,99
405,903	8
406,262	7,99
406,622	7,93
406,982	7,91
407,342	7,9
407,701	7,92
408,061	7,98
408,42	8,04
408,78	8
409,139	7,99
409,499	7,96
409,858	7,93
410,217	7,93
410,577	7,95
410,936	7,93
411,295	7,96
411,655	7,96
412,014	7,95
412,373	7,97
412,732	7,97
413,091	7,94
413,45	7,95
413,809	7,97
414,168	7,99
414,527	8,02
414,886	8,02
415,245	8,06
415,603	8,03
415,962	8,01
416,321	8,02
416,679	8,04
417,038	8,09
417,397	8,15
417,755	8,15
418,114	8,18
418,472	8,2
418,831	8,21
419,189	8,24
419,547	8,28
419,906	8,27
420,264	8,31
420,622	8,33
420,981	8,35
421,339	8,36
421,697	8,37
422,055	8,41
422,413	8,45
422,771	8,46
423,129	8,5
423,487	8,53
423,845	8,55
424,203	8,58
424,56	8,61
424,918	8,6
425,276	8,64
425,634	8,65
425,991	8,67
426,349	8,7
426,707	8,7
427,064	8,72
427,422	8,77
427,779	8,78
428,137	8,81
428,494	8,84
428,851	8,87
429,209	8,89
429,566	8,89
429,923	8,89
430,28	8,9
430,637	8,93
430,995	8,93
431,352	8,96
431,709	8,96
432,066	8,97
432,423	9,01
432,78	9,02
433,137	9,07
433,493	9,1
433,85	9,14
434,207	9,16
434,564	9,18
434,92	9,2
435,277	9,2
435,634	9,19
435,99	9,21
436,347	9,26
436,703	9,3
437,06	9,34
437,416	9,36
437,773	9,39
438,129	9,4
438,485	9,43
438,841	9,42
439,198	9,45
439,554	9,44
439,91	9,45
440,266	9,47
440,622	9,47
440,978	9,48
441,334	9,48
441,69	9,51
442,046	9,53
442,402	9,55
442,758	9,59
443,113	9,64
443,469	9,66
443,825	9,66
444,181	9,68
444,536	9,69
444,892	9,72
445,247	9,74
445,603	9,76
445,958	9,78
446,314	9,81
446,669	9,83
447,025	9,86
447,38	9,88
447,735	9,9
448,09	9,92
448,446	9,93
448,801	9,94
449,156	9,95
449,511	9,98
449,866	9,99
450,221	10,01
450,576	10,01
450,931	10,03
451,286	10,06
451,641	10,11
451,995	10,13
452,35	10,16
452,705	10,18
453,06	10,17
453,414	10,2
453,769	10,22
454,123	10,23
454,478	10,25
454,832	10,25
455,187	10,23
455,541	10,25
455,896	10,3
456,25	10,31
456,604	10,33
456,958	10,33
457,313	10,33
457,667	10,34
458,021	10,36
458,375	10,38
458,729	10,37
459,083	10,37
459,437	10,37
459,791	10,36
460,145	10,37
460,499	10,38
460,852	10,36
461,206	10,35
461,56	10,34
461,914	10,32
462,267	10,34
462,621	10,36
462,974	10,36
463,328	10,33
463,681	10,36
464,035	10,36
464,388	10,38
464,742	10,38
465,095	10,39
465,448	10,38
465,801	10,37
466,155	10,38
466,508	10,37
466,861	10,34
467,214	10,35
467,567	10,35
467,92	10,37
468,273	10,38
468,626	10,39
468,979	10,41
469,332	10,41
469,684	10,38
470,037	10,37
470,39	10,38
470,743	10,37
471,095	10,36
471,448	10,36
471,8	10,34
472,153	10,35
472,505	10,34
472,858	10,33
473,21	10,34
473,562	10,35
473,915	10,38
474,267	10,42
474,619	10,4
474,971	10,4
475,324	10,37
475,676	10,35
476,028	10,35
476,38	10,34
476,732	10,36
477,084	10,37
477,436	10,37
477,787	10,37
478,139	10,41
478,491	10,4
478,843	10,41
479,195	10,39
479,546	10,37
479,898	10,37
480,249	10,4
480,601	10,43
480,952	10,43
481,304	10,43
481,655	10,43
482,007	10,44
482,358	10,44
482,709	10,45
483,061	10,45
483,412	10,46
483,763	10,45
484,114	10,44
484,465	10,44
484,816	10,45
485,167	10,46
485,518	10,47
485,869	10,48
486,22	10,49
486,571	10,5
486,922	10,52
487,272	10,53
487,623	10,54
487,974	10,52
488,324	10,52
488,675	10,52
489,025	10,52
489,376	10,53
489,726	10,53
490,077	10,55
490,427	10,57
490,778	10,57
491,128	10,6
491,478	10,62
491,828	10,65
492,179	10,66
492,529	10,68
492,879	10,68
493,229	10,69
493,579	10,69
493,929	10,71
494,279	10,73
494,629	10,74
494,979	10,75
495,328	10,79
495,678	10,85
496,028	10,89
496,378	10,93
496,727	10,96
497,077	11,01
497,426	11,05
497,776	11,08
498,125	11,13
498,475	11,16
498,824	11,19
499,174	11,18
499,523	11,19
499,872	11,21
500,221	11,21
500,571	11,24
500,92	11,28
501,269	11,33
501,618	11,36
501,967	11,41
502,316	11,43
502,665	11,48
503,014	11,51
503,363	11,54
503,711	11,57
504,06	11,6
504,409	11,62
504,758	11,63
505,106	11,65
505,455	11,67
505,803	11,71
506,152	11,75
506,5	11,8
506,849	11,86
507,197	11,9
507,546	11,96
507,894	12
508,242	12,04
508,59	12,07
508,939	12,12
509,287	12,17
509,635	12,22
509,983	12,26
510,331	12,35
510,679	12,42
511,027	12,46
511,375	12,53
511,723	12,61
512,07	12,68
512,418	12,77
512,766	12,84
513,114	12,92
513,461	12,98
513,809	13,05
514,156	13,14
514,504	13,23
514,851	13,31
515,199	13,39
515,546	13,48
515,893	13,57
516,241	13,66
516,588	13,74
516,935	13,82
517,282	13,9
517,63	13,93
517,977	13,99
518,324	14,09
518,671	14,14
519,018	14,18
519,365	14,25
519,711	14,32
520,058	14,39
520,405	14,42
520,752	14,52
521,099	14,62
521,445	14,72
521,792	14,82
522,138	14,93
522,485	15,05
522,832	15,17
523,178	15,27
523,524	15,37
523,871	15,47
524,217	15,57
524,563	15,67
524,91	15,8
525,256	15,89
525,602	15,95
525,948	16,04
526,294	16,1
526,64	16,14
526,986	16,18
527,332	16,24
527,678	16,29
528,024	16,31
528,37	16,33
528,716	16,34
529,061	16,38
529,407	16,43
529,753	16,47
530,098	16,52
530,444	16,55
530,789	16,59
531,135	16,62
531,48	16,66
531,826	16,69
532,171	16,74
532,516	16,8
532,862	16,87
533,207	16,91
533,552	16,96
533,897	16,98
534,242	17,02
534,587	17,04
534,932	17,08
535,277	17,11
535,622	17,14
535,967	17,17
536,312	17,21
536,657	17,24
537,001	17,27
537,346	17,28
537,691	17,32
538,035	17,33
538,38	17,35
538,724	17,36
539,069	17,37
539,413	17,37
539,758	17,35
540,102	17,37
540,446	17,37
540,791	17,4
541,135	17,42
541,479	17,42
541,823	17,43
542,167	17,44
542,512	17,46
542,856	17,46
543,2	17,46
543,543	17,47
543,887	17,46
544,231	17,48
544,575	17,49
544,919	17,52
545,262	17,55
545,606	17,55
545,95	17,57
546,293	17,57
546,637	17,59
546,98	17,63
547,324	17,64
547,667	17,66
548,011	17,65
548,354	17,66
548,697	17,68
549,04	17,66
549,384	17,67
549,727	17,67
550,07	17,71
550,413	17,74
550,756	17,72
551,099	17,73
551,442	17,73
551,785	17,74
552,128	17,73
552,47	17,73
552,813	17,76
553,156	17,76
553,499	17,77
553,841	17,76
554,184	17,76
554,526	17,74
554,869	17,73
555,211	17,72
555,554	17,74
555,896	17,74
556,238	17,8
556,581	17,76
556,923	17,75
557,265	17,71
557,607	17,67
557,949	17,68
558,291	17,64
558,633	17,64
558,975	17,61
559,317	17,56
559,659	17,55
560,001	17,55
560,343	17,55
560,685	17,52
561,026	17,5
561,368	17,49
561,71	17,49
562,051	17,46
562,393	17,48
562,734	17,39
563,076	17,33
563,417	17,3
563,759	17,26
564,1	17,19
564,441	17,18
564,782	17,14
565,124	17,12
565,465	17,1
565,806	17,06
566,147	17,04
566,488	17,02
566,829	16,96
567,17	16,88
567,511	16,83
567,851	16,8
568,192	16,76
568,533	16,71
568,874	16,63
569,214	16,59
569,555	16,49
569,895	16,48
570,236	16,42
570,576	16,35
570,917	16,29
571,257	16,24
571,598	16,22
571,938	16,17
572,278	16,12
572,618	16,07
572,959	16
573,299	15,96
573,639	15,92
573,979	15,87
574,319	15,84
574,659	15,79
574,999	15,77
575,339	15,73
575,678	15,68
576,018	15,68
576,358	15,64
576,698	15,6
577,037	15,58
577,377	15,51
577,716	15,43
578,056	15,42
578,395	15,41
578,735	15,35
579,074	15,35
579,413	15,3
579,753	15,27
580,092	15,26
580,431	15,2
580,77	15,17
581,109	15,17
581,448	15,15
581,787	15,08
582,126	15,03
582,465	14,98
582,804	14,94
583,143	14,93
583,482	14,9
583,82	14,87
584,159	14,81
584,498	14,82
584,836	14,82
585,175	14,81
585,514	14,79
585,852	14,73
586,19	14,7
586,529	14,68
586,867	14,66
587,205	14,63
587,544	14,61
587,882	14,58
588,22	14,51
588,558	14,5
588,896	14,47
589,234	14,44
589,572	14,41
589,91	14,36
590,248	14,31
590,586	14,3
590,924	14,3
591,262	14,3
591,599	14,28
591,937	14,27
592,275	14,25
592,612	14,2
592,95	14,19
593,287	14,21
593,625	14,19
593,962	14,15
594,299	14,14
594,637	14,13
594,974	14,14
595,311	14,13
595,648	14,12
595,985	14,13
596,322	14,13
596,659	14,13
596,996	14,13
597,333	14,12
597,67	14,14
598,007	14,14
598,344	14,15
598,681	14,19
599,017	14,18
599,354	14,13
599,691	14,14
600,027	14,16
600,364	14,11
600,7	14,1
601,037	14,14
601,373	14,16
601,71	14,12
602,046	14,11
602,382	14,13
602,718	14,14
603,054	14,12
603,391	14,13
603,727	14,13
604,063	14,15
604,399	14,13
604,735	14,11
605,071	14,08
605,406	14,08
605,742	14,05
606,078	14,03
606,414	14,05
606,749	14,04
607,085	14,02
607,421	14,01
607,756	13,99
608,092	13,96
608,427	13,9
608,762	13,9
609,098	13,87
609,433	13,82
609,768	13,77
610,104	13,74
610,439	13,69
610,774	13,65
611,109	13,63
611,444	13,62
611,779	13,59
612,114	13,56
612,449	13,52
612,784	13,5
613,118	13,5
613,453	13,45
613,788	13,41
614,123	13,35
614,457	13,33
614,792	13,32
615,126	13,29
615,461	13,27
615,795	13,22
616,13	13,21
616,464	13,2
616,798	13,23
617,132	13,24
617,467	13,26
617,801	13,27
618,135	13,23
618,469	13,19
618,803	13,18
619,137	13,18
619,471	13,15
619,805	13,11
620,139	13,08
620,472	13,07
620,806	13,06
621,14	13,03
621,473	12,96
621,807	12,91
622,141	12,94
622,474	12,96
622,808	12,95
623,141	12,93
623,474	12,92
623,808	12,85
624,141	12,79
624,474	12,76
624,807	12,73
625,141	12,72
625,474	12,75
625,807	12,73
626,14	12,7
626,473	12,71
626,806	12,71
627,138	12,69
627,471	12,66
627,804	12,64
628,137	12,68
628,469	12,71
628,802	12,75
629,135	12,73
629,467	12,73
629,8	12,76
630,132	12,8
630,465	12,8
630,797	12,82
631,129	12,83
631,461	12,79
631,794	12,78
632,126	12,77
632,458	12,75
632,79	12,78
633,122	12,79
633,454	12,8
633,786	12,79
634,118	12,81
634,45	12,85
634,781	12,87
635,113	12,83
635,445	12,79
635,777	12,74
636,108	12,68
636,44	12,63
636,771	12,59
637,103	12,56
637,434	12,56
637,765	12,58
638,097	12,62
638,428	12,63
638,759	12,64
639,09	12,68
639,422	12,65
639,753	12,57
640,084	12,57
640,415	12,53
640,746	12,52
641,077	12,45
641,407	12,39
641,738	12,34
642,069	12,29
642,4	12,3
642,73	12,31
643,061	12,31
643,392	12,31
643,722	12,29
644,053	12,27
644,383	12,23
644,713	12,16
645,044	12,14
645,374	12,13
645,704	12,16
646,034	12,11
646,365	12,11
646,695	12,09
647,025	12,06
647,355	12,04
647,685	11,98
648,015	11,98
648,344	11,97
648,674	12,01
649,004	12,03
649,334	11,97
649,663	11,91
649,993	11,91
650,323	11,89
650,652	11,86
650,982	11,8
651,311	11,79
651,64	11,81
651,97	11,77
652,299	11,74
652,628	11,68
652,958	11,65
653,287	11,64
653,616	11,64
653,945	11,59
654,274	11,57
654,603	11,57
654,932	11,51
655,261	11,43
655,589	11,33
655,918	11,28
656,247	11,3
656,576	11,27
656,904	11,21
657,233	11,15
657,561	11,18
657,89	11,18
658,218	11,14
658,547	11,12
658,875	11,09
659,203	11,11
659,532	11,1
659,86	11,05
660,188	10,98
660,516	10,93
660,844	10,89
661,172	10,84
661,5	10,78
661,828	10,78
662,156	10,78
662,484	10,8
662,811	10,79
663,139	10,78
663,467	10,77
663,794	10,77
664,122	10,71
664,45	10,64
664,777	10,6
665,104	10,56
665,432	10,47
665,759	10,45
666,086	10,41
666,414	10,37
666,741	10,35
667,068	10,35
667,395	10,33
667,722	10,32
668,049	10,26
668,376	10,25
668,703	10,27
669,03	10,31
669,357	10,27
669,683	10,25
670,01	10,23
670,337	10,21
670,663	10,14
670,99	10,15
671,317	10,15
671,643	10,13
671,969	10,1
672,296	10,1
672,622	10,08
672,948	10,05
673,275	10,02
673,601	10,01
673,927	10,01
674,253	10,01
674,579	10,01
674,905	10,07
675,231	10,05
675,557	10
675,883	9,94
676,209	9,98
676,534	9,95
676,86	9,9
677,186	9,9
677,511	9,93
677,837	10
678,162	10,03
678,488	10,08
678,813	10,17
679,139	10,24
679,464	10,28
679,789	10,31
680,114	10,36
680,44	10,43
680,765	10,45
681,09	10,5
681,415	10,59
681,74	10,69
682,065	10,78
682,39	10,89
682,714	10,98
683,039	10,99
683,364	11,03
683,689	11,1
684,013	11,17
684,338	11,23
684,662	11,23
684,987	11,26
685,311	11,32
685,636	11,31
685,96	11,32
686,284	11,34
686,608	11,38
686,933	11,45
687,257	11,51
687,581	11,6
687,905	11,65
688,229	11,65
688,553	11,65
688,877	11,69
689,201	11,72
689,524	11,76
689,848	11,89
690,172	12,06
690,496	12,19
690,819	12,3
691,143	12,49
691,466	12,71
691,79	12,91
692,113	13,06
692,436	13,24
692,76	13,43
693,083	13,66
693,406	13,84
693,729	14,01
694,053	14,2
694,376	14,37
694,699	14,5
695,022	14,7
695,344	14,93
695,667	15,12
695,99	15,29
696,313	15,5
696,636	15,71
696,958	15,92
697,281	16,09
697,604	16,27
697,926	16,31
698,249	16,48
698,571	16,58
698,893	16,67
699,216	16,78
699,538	16,96
699,86	17,14
700,182	17,33
700,504	17,48
700,827	17,61
701,149	17,83
701,471	18,05
701,793	18,29
702,114	18,54
702,436	18,8
702,758	19,11
703,08	19,43
703,401	19,72
703,723	19,95
704,045	20,22
704,366	20,38
704,688	20,76
705,009	20,95
705,331	21,18
705,652	21,55
705,973	21,79
706,294	21,94
706,616	22,13
706,937	22,36
707,258	22,68
707,579	22,94
707,9	23,12
708,221	23,42
708,542	23,73
708,863	23,97
709,183	24,26
709,504	24,5
709,825	24,69
710,145	24,9
710,466	25,1
710,787	25,25
711,107	25,62
711,427	25,79
711,748	26,03
712,068	26,27
712,388	26,42
712,709	26,75
713,029	27
713,349	27,2
713,669	27,33
713,989	27,48
714,309	27,73
714,629	27,94
714,949	28,19
715,269	28,33
715,589	28,6
715,908	28,78
716,228	29,02
716,548	29,23
716,867	29,48
717,187	29,76
717,506	30,16
717,826	30,39
718,145	30,74
718,465	30,95
718,784	31,26
719,103	31,62
719,422	31,94
719,741	32,23
720,061	32,55
720,38	32,87
720,699	33,18
721,018	33,4
721,336	33,68
721,655	34
721,974	34,33
722,293	34,61
722,612	34,96
722,93	35,27
723,249	35,59
723,567	35,72
723,886	36,08
724,204	36,31
724,523	36,52
724,841	36,66
725,159	36,96
725,477	37,15
725,796	37,32
726,114	37,51
726,432	37,84
726,75	38,16
727,068	38,44
727,386	38,82
727,704	39,2
728,022	39,53
728,339	39,74
728,657	40,11
728,975	40,46
729,292	40,73
729,61	41,01
729,928	41,24
730,245	41,72
730,562	41,87
730,88	42,15
731,197	42,48
731,514	42,88
731,832	43,16
732,149	43,5
732,466	43,8
732,783	44,04
733,1	44,16
733,417	44,44
733,734	44,76
734,051	45,02
734,368	45,32
734,684	45,68
735,001	46
735,318	46,07
735,634	46,1
735,951	46,41
736,268	46,79
736,584	47,15
736,9	47,27
737,217	47,5
737,533	47,73
737,849	47,88
738,166	48,09
738,482	48,31
738,798	48,62
739,114	48,91
739,43	49,21
739,746	49,56
740,062	49,61
740,378	49,8
740,693	49,92
741,009	50,04
741,325	50,15
741,641	50,36
741,956	50,58
742,272	50,84
742,587	50,84
742,903	50,83
743,218	50,86
743,533	50,91
743,849	51,15
744,164	51,36
744,479	51,41
744,794	51,68
745,109	51,83
745,424	51,99
745,739	51,96
746,054	52
746,369	52,16
746,684	52,44
746,999	52,47
747,313	52,49
747,628	52,73
747,943	52,6
748,257	52,61
748,572	52,8
748,886	52,89
749,201	52,97
749,515	53,08
749,829	53,29
750,144	53,69
750,458	53,77
750,772	53,84
751,086	53,91
751,4	53,74
751,714	53,66
752,028	53,67
752,342	53,76
752,656	53,9
752,97	53,94
753,284	53,65
753,597	53,63
753,911	53,69
754,225	53,49
754,538	53,83
754,852	53,79
755,165	53,84
755,478	54,14
755,792	54,33
756,105	54,49
756,418	54,43
756,731	54,33
757,045	54,33
757,358	54,34
757,671	54,49
757,984	54,49
758,297	54,58
758,609	54,48
758,922	54,64
759,235	54,56
759,548	54,5
759,86	54,75
760,173	54,63
760,486	54,68
760,798	54,75
761,111	54,68
761,423	54,67
761,735	54,77
762,048	54,77
762,36	54,8
762,672	54,85
762,984	55,03
763,296	55,04
763,608	54,87
763,92	54,8
764,232	54,82
764,544	54,97
764,856	54,92
765,168	54,85
765,48	54,87
765,791	54,91
766,103	55,06
766,414	55,13
766,726	55,28
767,037	55,36
767,349	55,3
767,66	55,46
767,972	55,6
768,283	55,56
768,594	55,47
768,905	55,42
769,216	55,27
769,527	55,04
769,838	55,01
770,149	55,24
770,46	55,2
770,771	55,39
771,082	55,36
771,393	55,53
771,703	55,74
772,014	55,92
772,324	55,95
772,635	55,99
772,945	56,3
773,256	56,66
773,566	56,55
773,877	56,45
774,187	56,04
774,497	55,75
774,807	55,6
775,117	55,55
775,427	55,73
775,737	55,95
776,047	56,06
776,357	56,17
776,667	56,51
776,977	56,64
777,287	56,32
777,596	56,12
777,906	56,17
778,216	56,62
778,525	56,71
778,835	56,75
779,144	56,62
779,453	56,48
779,763	56,28
780,072	56,52
780,381	57,06
780,69	57,3
781	57,79
781,309	58,08
781,618	58,19
781,927	57,68
782,235	57,19
782,544	57,24
782,853	57,15
783,162	56,92
783,471	56,92
783,779	57,2
784,088	57,13
784,396	56,98
784,705	56,76
785,013	56,26
785,322	56
785,63	55,88
785,938	55,52
786,246	55,68
786,554	55,53
786,863	55,42
787,171	55,64
787,479	55,43
787,787	55,17
788,094	55,08
788,402	55,28
788,71	55,13
789,018	55,02
789,326	55,06
789,633	55,3
789,941	55,15
790,248	54,71
790,556	54,86
790,863	55,01
791,171	54,44
791,478	54,42
791,785	54,51
792,092	54,58
792,399	54,74
792,707	54,47
793,014	54,26
793,321	54,25
793,628	54,26
793,934	54,51
794,241	54,63
794,548	54,59
794,855	54,81
795,161	55,42
795,468	55,35
795,775	55,4
796,081	55,21
796,388	55,4
796,694	55,55
797	55,67
797,307	55,74
797,613	56
797,919	56,32
798,225	56,42
798,531	56,56
798,837	56,4
799,143	56,3
799,449	56,59
799,755	56,81
800,061	56,6
800,367	56,36
800,672	56,31
800,978	56,41
801,284	56,72
801,589	56,68
801,895	56,33
802,2	56,13
802,506	56,75
802,811	56,86
803,116	57,15
803,421	57,05
803,727	57,12
804,032	57,46
804,337	56,97
804,642	56,71
804,947	56,65
805,252	56,99
805,556	56,99
805,861	56,94
806,166	56,72
806,471	56,41
806,775	56,35
807,08	56,02
807,384	56,11
807,689	55,71
807,993	55,73
808,298	56,27
808,602	56,13
808,906	55,08
809,211	55,01
809,515	55,25
809,819	55,42
810,123	55,35
810,427	55,31
810,731	55,31
811,035	55,14
811,338	54,76
811,642	54,04
811,946	53,98
812,25	54,13
812,553	54,52
812,857	55,09
813,16	55,73
813,464	56,16
813,767	56,07
814,07	56,05
814,374	56,01
814,677	55,91
814,98	55,91
815,283	55,97
815,586	55,38
815,889	54,61
816,192	54,42
816,495	54,15
816,798	53,74
817,101	53,76
817,404	53,85
817,706	53,72
818,009	54,07
818,312	54,18
818,614	53,86
818,917	53,73
819,219	53,42
819,521	53,51
819,824	53,82
820,126	54,16
820,428	54,41
820,73	54,8
821,032	54,88
821,334	54,79
821,636	55,01
821,938	55,21
822,24	55,24
822,542	55,23
822,844	55,36
823,145	55,44
823,447	55,5
823,749	55,71
824,05	55,72
824,352	55,77
824,653	55,89
824,955	55,9
825,256	55,95
825,557	56,18
825,858	56,2
826,16	56,25
826,461	56,29
826,762	56,27
827,063	56,15
827,364	56,25
827,665	56,45
827,965	56,34
828,266	56,13
828,567	56,33
828,868	56,43
829,168	56,21
829,469	55,91
829,769	55,82
830,07	55,65
830,37	55,69
830,67	55,75
830,971	55,66
831,271	55,66
831,571	55,21
831,871	54,63
832,171	54,58
832,471	54,6
832,771	54,61
833,071	54,79
833,371	54,73
833,671	54,49
833,971	54,56
834,27	54,49
834,57	54,42
834,869	54,21
835,169	54,29
835,468	54,62
835,768	55,14
836,067	55,06
836,367	54,74
836,666	54,59
836,965	54,22
837,264	53,74
837,563	53,59
837,862	53,89
838,161	54,16
838,46	53,46
838,759	52,96
839,058	52,62
839,356	52,52
839,655	52,03
839,954	52,28
840,252	52,61
840,551	52,73
840,849	53,22
841,148	53,09
841,446	51,87
841,744	50,74
842,043	50,44
842,341	51,06
842,639	50,87
842,937	50,75
843,235	51,15
843,533	51,52
843,831	51,62
844,129	50,83
844,427	50,32
844,724	51,34
845,022	51,58
845,32	51,29
845,617	50,78
845,915	50,94
846,212	50,43
846,51	49,62
846,807	50,07
847,104	50,55
847,402	50,99
847,699	52,29
847,996	53,36
848,293	53,14
848,59	52,35
848,887	52,2
849,184	52,52
849,481	51,86
849,778	50,31
850,074	50,82
850,371	52,17
850,668	51,59
850,964	50,82
851,261	49,86
851,557	49,81
851,854	50,1
852,15	49,9
852,446	50,4
852,743	52,07
853,039	51,02
853,335	50
853,631	49,44
853,927	49,09
854,223	49,25
854,519	49,95
854,815	50,66
855,111	52,88
855,406	54,67
855,702	54,98
855,998	57,64
856,293	57,62
856,589	57,85
856,884	59,61
857,18	60,45
857,475	60,57
857,77	60,96
858,066	60,51
858,361	60,41
858,656	59,23
858,951	56,88
859,246	56,38
859,541	55,85
859,836	56,18
860,131	56,08
860,426	54,89
860,72	53,72
861,015	52,81
861,31	49,82
861,604	49,17
861,899	48,75
862,193	47,93
862,487	49,17
862,782	49,53
863,076	48,95
863,37	50
863,664	50,54
863,959	50,3
864,253	51,53
864,547	52,11
864,841	53,47
865,135	54,1
865,428	53,89
865,722	53,3
866,016	51,62
866,31	52,32
866,603	53,92
866,897	54,46
867,19	52,7
867,484	53,11
867,777	52,23
868,07	52,56
868,364	52,88
868,657	52
868,95	50,96
869,243	49,58
869,536	48,15
869,829	48,76
870,122	47,58
870,415	47,59
870,708	46,97
871	46,9
871,293	47,37
871,586	47,66
871,878	49,7
872,171	50,36
872,463	49,34
872,756	49,11
873,048	50,76
873,341	52,56
873,633	53,75
873,925	54
874,217	53,84
874,509	53,04
874,801	51,89
875,093	51,62
875,385	53,93
875,677	54,77
875,969	54,29
