Data from palm_cartel_d_Reflection_00006.txt Node
Date: Fri Feb 11 16:24:07 ART 2022
User: Nati
Spectrometer: USB2E3644
Trigger mode: 4
Integration Time (sec): 4,100000E-2
Scans to average: 10
Electric dark correction enabled: true
Nonlinearity correction enabled: false
Boxcar width: 10
XAxis mode: Wavelengths
Number of Pixels in Spectrum: 2048
>>>>>Begin Spectral Data<<<<<
178,315	-44,41
178,696	-21,95
179,076	22,59
179,457	53,15
179,838	79,91
180,218	63,1
180,599	71,2
180,979	257,14
181,36	99,77
181,74	87,58
182,121	71,17
182,501	68,98
182,881	50,32
183,262	33,79
183,642	15
184,022	-11,68
184,402	-41,93
184,783	-16,05
185,163	-1,96
185,543	-0,67
185,923	7,86
186,303	2,85
186,683	-5,31
187,063	-1,32
187,443	1,21
187,823	7,63
188,203	1,03
188,583	-4,31
188,963	-12,77
189,343	-42,27
189,723	-53,14
190,102	-64,71
190,482	-67,18
190,862	-71,03
191,242	-80,57
191,621	-73,06
192,001	-66,01
192,38	-57,61
192,76	-82,41
193,14	-99,87
193,519	-86,7
193,898	-87,04
194,278	-59,63
194,657	-49,84
195,037	-54,2
195,416	-61,72
195,795	-61,38
196,175	-59,4
196,554	-60,71
196,933	-57,87
197,312	-49,12
197,692	-41,61
198,071	-29,57
198,45	-23,06
198,829	-22,32
199,208	-17,61
199,587	-17,27
199,966	-16,06
200,345	-11,06
200,724	-2,41
201,103	0,44
201,482	1,01
201,86	0,43
202,239	-1,88
202,618	-2,23
202,997	-0,72
203,375	-0,14
203,754	-1,19
204,133	-2,02
204,511	1,74
204,89	5,41
205,269	6,14
205,647	5,53
206,026	2,02
206,404	1,82
206,782	7,69
207,161	10,43
207,539	10,54
207,918	12,85
208,296	9,59
208,674	6,47
209,052	8,55
209,431	9,92
209,809	13,05
210,187	11,04
210,565	11,37
210,943	14,53
211,321	17,39
211,699	18,16
212,077	19,23
212,455	17,2
212,833	15,02
213,211	18,93
213,589	20,84
213,967	20,45
214,345	18,01
214,722	13,4
215,1	9,09
215,478	5,58
215,855	1,62
216,233	0,88
216,611	3,56
216,988	-0,51
217,366	-6,3
217,743	-11,93
218,121	-11,22
218,498	-15,96
218,876	-22,85
219,253	-18,54
219,631	-14,15
220,008	-17,86
220,385	-19,99
220,762	-21,78
221,14	-28,98
221,517	-36,8
221,894	-35,22
222,271	-33,69
222,648	-40,54
223,025	-39,2
223,402	-37,83
223,78	-43,83
224,157	-47,65
224,533	-52,56
224,91	-49,86
225,287	-38,59
225,664	-30,28
226,041	-23,98
226,418	-18,43
226,795	-14,77
227,171	-22,55
227,548	-23,38
227,925	-21,83
228,301	-18,36
228,678	-19,91
229,055	-18,45
229,431	-15,98
229,808	-17,37
230,184	-14,28
230,561	-9,91
230,937	-9,68
231,313	-7,66
231,69	-1,37
232,066	1,36
232,442	4,27
232,819	3,17
233,195	-0,76
233,571	-2,27
233,947	-9,75
234,323	-17,66
234,699	-16,84
235,075	-12,2
235,451	-11,83
235,827	-11,55
236,203	-16,01
236,579	-18,64
236,955	-15,5
237,331	-15,74
237,707	-17,16
238,083	-19,81
238,459	-18,7
238,834	-16,08
239,21	-13,46
239,586	-11,23
239,961	-10,01
240,337	-9,39
240,713	-6,71
241,088	-5,42
241,464	-5,33
241,839	-4,25
242,215	0,77
242,59	3,37
242,965	4,65
243,341	6,29
243,716	7,29
244,091	8,6
244,467	10,47
244,842	10,2
245,217	10,11
245,592	11,76
245,967	12,83
246,343	12,57
246,718	11,53
247,093	10,52
247,468	9,57
247,843	10,06
248,218	9,42
248,593	8,2
248,967	7,64
249,342	7,23
249,717	8,71
250,092	8,46
250,467	7,48
250,841	7,23
251,216	7,45
251,591	8,18
251,965	7,65
252,34	6,9
252,714	5,99
253,089	6,32
253,463	6,75
253,838	7,47
254,212	7,89
254,587	8,23
254,961	8,59
255,335	9,13
255,71	9,02
256,084	10,13
256,458	11,59
256,832	12,04
257,206	12,34
257,581	12,15
257,955	11,81
258,329	12,32
258,703	12,31
259,077	11,75
259,451	10,41
259,825	10,62
260,199	11,04
260,572	11,41
260,946	11,86
261,32	11,98
261,694	11,66
262,068	11,95
262,441	12,59
262,815	13,04
263,189	13,65
263,562	13,79
263,936	14
264,309	13,84
264,683	13,52
265,056	13,34
265,43	13,05
265,803	13,44
266,176	13,46
266,55	13,14
266,923	12,54
267,296	13,16
267,67	13,05
268,043	12,24
268,416	12,23
268,789	11,97
269,162	11,55
269,535	11,85
269,908	12,02
270,281	11,33
270,654	10,83
271,027	9,49
271,4	8,81
271,773	7,68
272,146	7,31
272,519	7,79
272,891	8,2
273,264	8,33
273,637	7,76
274,01	6,88
274,382	6,18
274,755	6,47
275,127	6,54
275,5	6,99
275,872	8
276,245	8,33
276,617	8,17
276,99	7,76
277,362	7,78
277,734	7,83
278,107	8,19
278,479	8,05
278,851	8,92
279,223	9,46
279,596	10,18
279,968	10,61
280,34	10,59
280,712	10,2
281,084	9,89
281,456	9,99
281,828	10,18
282,2	10,86
282,572	11,13
282,944	11,07
283,315	10,85
283,687	10,6
284,059	10,86
284,431	11,24
284,802	11,26
285,174	11,36
285,546	11,4
285,917	11,47
286,289	11,39
286,66	11,22
287,032	11,06
287,403	11,02
287,775	10,88
288,146	10,87
288,518	11,06
288,889	11,1
289,26	11,08
289,632	10,93
290,003	10,96
290,374	10,86
290,745	10,97
291,116	10,64
291,487	10,22
291,858	9,72
292,229	9,55
292,6	9,84
292,971	9,69
293,342	9,61
293,713	9,17
294,084	9,56
294,455	9,55
294,826	9,59
295,196	9,49
295,567	9,34
295,938	9,08
296,308	8,64
296,679	8,32
297,05	8,31
297,42	8,46
297,791	8,27
298,161	8,05
298,532	7,85
298,902	8,28
299,272	8,58
299,643	8,8
300,013	8,96
300,383	9,02
300,754	8,92
301,124	8,96
301,494	9,31
301,864	8,96
302,234	8,75
302,604	8,86
302,974	8,83
303,344	8,64
303,714	8,86
304,084	9,08
304,454	9,7
304,824	9,99
305,194	10,18
305,563	10,23
305,933	10,26
306,303	10,58
306,673	10,66
307,042	10,61
307,412	10,68
307,781	10,4
308,151	10,11
308,521	10,16
308,89	10,17
309,259	10,28
309,629	10,77
309,998	11,06
310,368	10,79
310,737	10,78
311,106	10,9
311,475	10,87
311,845	11,25
312,214	11,29
312,583	11,33
312,952	11,31
313,321	11,43
313,69	11,55
314,059	11,53
314,428	11,4
314,797	11,1
315,166	10,75
315,535	10,82
315,904	11,09
316,272	11,18
316,641	11,26
317,01	11,03
317,379	10,75
317,747	10,6
318,116	10,7
318,484	10,68
318,853	10,89
319,221	11,02
319,59	10,83
319,958	10,51
320,327	10,22
320,695	10,47
321,063	10,44
321,432	10,34
321,8	10,11
322,168	9,74
322,536	10,13
322,905	10,34
323,273	10,33
323,641	10,16
324,009	9,98
324,377	9,74
324,745	9,65
325,113	9,26
325,481	9,28
325,849	9,34
326,216	9,24
326,584	9,08
326,952	9
327,32	8,89
327,687	8,88
328,055	9,28
328,423	9,25
328,79	9,31
329,158	9,51
329,525	9,48
329,893	9,54
330,26	9,25
330,628	9,19
330,995	9,14
331,362	9,27
331,73	9,38
332,097	9,34
332,464	9,58
332,831	9,93
333,199	10,01
333,566	10,03
333,933	10,14
334,3	10,21
334,667	10,06
335,034	10,13
335,401	10,21
335,768	10,05
336,135	9,99
336,502	9,98
336,868	9,91
337,235	10,04
337,602	10,21
337,969	10,31
338,335	10,11
338,702	9,92
339,069	9,69
339,435	9,64
339,802	9,71
340,168	9,7
340,535	9,68
340,901	9,65
341,267	9,66
341,634	9,62
342	9,69
342,366	9,85
342,733	9,87
343,099	9,99
343,465	9,83
343,831	9,86
344,197	9,86
344,563	9,99
344,929	9,94
345,295	9,87
345,661	9,86
346,027	10,07
346,393	10,21
346,759	10,35
347,125	10,43
347,491	10,43
347,856	10,25
348,222	10,3
348,588	10,26
348,953	10,09
349,319	10,04
349,684	9,89
350,05	9,72
350,415	9,61
350,781	9,5
351,146	9,62
351,512	9,45
351,877	9,3
352,242	9,11
352,608	9,17
352,973	9,24
353,338	9,24
353,703	9,22
354,068	9,16
354,433	9,04
354,798	9
355,164	9,02
355,528	9,1
355,893	9,15
356,258	9,18
356,623	9,25
356,988	9,26
357,353	9,26
357,718	9,24
358,082	9,32
358,447	9,28
358,812	9,29
359,176	9,3
359,541	9,31
359,905	9,26
360,27	9,24
360,634	9,17
360,999	9,2
361,363	9,23
361,728	9,31
362,092	9,37
362,456	9,28
362,821	9,27
363,185	9,27
363,549	9,16
363,913	9,12
364,277	9,17
364,641	9,21
365,005	9,23
365,369	9,29
365,733	9,31
366,097	9,35
366,461	9,35
366,825	9,36
367,189	9,35
367,553	9,39
367,916	9,41
368,28	9,42
368,644	9,43
369,007	9,38
369,371	9,41
369,734	9,48
370,098	9,57
370,461	9,56
370,825	9,57
371,188	9,59
371,552	9,61
371,915	9,55
372,278	9,57
372,642	9,67
373,005	9,75
373,368	9,74
373,731	9,77
374,094	9,7
374,457	9,76
374,82	9,84
375,183	9,77
375,546	9,72
375,909	9,74
376,272	9,72
376,635	9,67
376,998	9,6
377,361	9,56
377,723	9,6
378,086	9,62
378,449	9,65
378,811	9,62
379,174	9,61
379,537	9,71
379,899	9,72
380,262	9,69
380,624	9,63
380,987	9,62
381,349	9,6
381,711	9,6
382,074	9,58
382,436	9,56
382,798	9,72
383,16	9,72
383,522	9,71
383,884	9,75
384,247	9,81
384,609	9,81
384,971	9,77
385,333	9,72
385,695	9,7
386,056	9,68
386,418	9,68
386,78	9,72
387,142	9,71
387,504	9,67
387,865	9,61
388,227	9,61
388,589	9,57
388,95	9,53
389,312	9,54
389,673	9,53
390,035	9,51
390,396	9,44
390,758	9,44
391,119	9,45
391,48	9,41
391,842	9,38
392,203	9,4
392,564	9,45
392,925	9,39
393,286	9,34
393,648	9,36
394,009	9,38
394,37	9,35
394,731	9,35
395,092	9,36
395,452	9,4
395,813	9,41
396,174	9,46
396,535	9,51
396,896	9,55
397,257	9,56
397,617	9,57
397,978	9,6
398,338	9,62
398,699	9,64
399,06	9,68
399,42	9,73
399,781	9,77
400,141	9,77
400,501	9,83
400,862	9,88
401,222	9,86
401,582	9,82
401,943	9,83
402,303	9,77
402,663	9,76
403,023	9,73
403,383	9,7
403,743	9,65
404,103	9,63
404,463	9,62
404,823	9,61
405,183	9,61
405,543	9,57
405,903	9,57
406,262	9,56
406,622	9,54
406,982	9,49
407,342	9,51
407,701	9,5
408,061	9,51
408,42	9,54
408,78	9,57
409,139	9,6
409,499	9,63
409,858	9,67
410,217	9,68
410,577	9,69
410,936	9,71
411,295	9,74
411,655	9,76
412,014	9,74
412,373	9,74
412,732	9,75
413,091	9,79
413,45	9,78
413,809	9,76
414,168	9,78
414,527	9,79
414,886	9,79
415,245	9,79
415,603	9,79
415,962	9,8
416,321	9,78
416,679	9,82
417,038	9,82
417,397	9,84
417,755	9,86
418,114	9,87
418,472	9,88
418,831	9,9
419,189	9,91
419,547	9,92
419,906	9,95
420,264	9,98
420,622	9,98
420,981	9,99
421,339	9,98
421,697	10
422,055	10,04
422,413	10,04
422,771	10,05
423,129	10,07
423,487	10,09
423,845	10,1
424,203	10,1
424,56	10,12
424,918	10,12
425,276	10,14
425,634	10,18
425,991	10,22
426,349	10,23
426,707	10,21
427,064	10,25
427,422	10,23
427,779	10,21
428,137	10,24
428,494	10,3
428,851	10,35
429,209	10,37
429,566	10,37
429,923	10,4
430,28	10,41
430,637	10,45
430,995	10,42
431,352	10,43
431,709	10,43
432,066	10,45
432,423	10,47
432,78	10,5
433,137	10,51
433,493	10,49
433,85	10,5
434,207	10,54
434,564	10,53
434,92	10,55
435,277	10,59
435,634	10,61
435,99	10,64
436,347	10,66
436,703	10,69
437,06	10,7
437,416	10,73
437,773	10,73
438,129	10,72
438,485	10,73
438,841	10,76
439,198	10,77
439,554	10,78
439,91	10,79
440,266	10,8
440,622	10,81
440,978	10,81
441,334	10,8
441,69	10,8
442,046	10,83
442,402	10,86
442,758	10,87
443,113	10,86
443,469	10,85
443,825	10,85
444,181	10,85
444,536	10,86
444,892	10,85
445,247	10,86
445,603	10,88
445,958	10,91
446,314	10,92
446,669	10,93
447,025	10,93
447,38	10,94
447,735	10,93
448,09	10,92
448,446	10,93
448,801	10,96
449,156	10,98
449,511	10,97
449,866	10,97
450,221	10,97
450,576	11,01
450,931	11,05
451,286	11,09
451,641	11,1
451,995	11,14
452,35	11,17
452,705	11,18
453,06	11,21
453,414	11,23
453,769	11,24
454,123	11,26
454,478	11,28
454,832	11,29
455,187	11,29
455,541	11,3
455,896	11,32
456,25	11,32
456,604	11,33
456,958	11,36
457,313	11,37
457,667	11,38
458,021	11,36
458,375	11,36
458,729	11,35
459,083	11,34
459,437	11,33
459,791	11,32
460,145	11,34
460,499	11,32
460,852	11,3
461,206	11,29
461,56	11,28
461,914	11,26
462,267	11,26
462,621	11,3
462,974	11,32
463,328	11,33
463,681	11,33
464,035	11,34
464,388	11,33
464,742	11,34
465,095	11,37
465,448	11,4
465,801	11,42
466,155	11,41
466,508	11,43
466,861	11,4
467,214	11,41
467,567	11,41
467,92	11,42
468,273	11,44
468,626	11,47
468,979	11,5
469,332	11,53
469,684	11,54
470,037	11,52
470,39	11,56
470,743	11,57
471,095	11,6
471,448	11,62
471,8	11,63
472,153	11,61
472,505	11,61
472,858	11,61
473,21	11,6
473,562	11,63
473,915	11,63
474,267	11,66
474,619	11,68
474,971	11,69
475,324	11,69
475,676	11,68
476,028	11,65
476,38	11,62
476,732	11,61
477,084	11,62
477,436	11,61
477,787	11,57
478,139	11,58
478,491	11,56
478,843	11,55
479,195	11,55
479,546	11,52
479,898	11,49
480,249	11,49
480,601	11,5
480,952	11,51
481,304	11,51
481,655	11,52
482,007	11,52
482,358	11,51
482,709	11,51
483,061	11,51
483,412	11,52
483,763	11,52
484,114	11,52
484,465	11,51
484,816	11,53
485,167	11,52
485,518	11,53
485,869	11,53
486,22	11,53
486,571	11,54
486,922	11,55
487,272	11,57
487,623	11,57
487,974	11,57
488,324	11,58
488,675	11,6
489,025	11,6
489,376	11,6
489,726	11,6
490,077	11,6
490,427	11,62
490,778	11,64
491,128	11,64
491,478	11,67
491,828	11,69
492,179	11,71
492,529	11,74
492,879	11,75
493,229	11,76
493,579	11,78
493,929	11,76
494,279	11,77
494,629	11,79
494,979	11,82
495,328	11,85
495,678	11,89
496,028	11,9
496,378	11,93
496,727	11,98
497,077	12,04
497,426	12,06
497,776	12,07
498,125	12,09
498,475	12,12
498,824	12,16
499,174	12,18
499,523	12,2
499,872	12,22
500,221	12,26
500,571	12,27
500,92	12,32
501,269	12,39
501,618	12,45
501,967	12,48
502,316	12,51
502,665	12,54
503,014	12,56
503,363	12,59
503,711	12,62
504,06	12,63
504,409	12,67
504,758	12,72
505,106	12,78
505,455	12,81
505,803	12,85
506,152	12,89
506,5	12,92
506,849	12,96
507,197	13,01
507,546	13,08
507,894	13,1
508,242	13,15
508,59	13,2
508,939	13,26
509,287	13,29
509,635	13,33
509,983	13,39
510,331	13,44
510,679	13,49
511,027	13,54
511,375	13,6
511,723	13,65
512,07	13,7
512,418	13,76
512,766	13,82
513,114	13,9
513,461	13,96
513,809	14,05
514,156	14,13
514,504	14,21
514,851	14,29
515,199	14,37
515,546	14,45
515,893	14,51
516,241	14,58
516,588	14,67
516,935	14,75
517,282	14,82
517,63	14,88
517,977	14,95
518,324	15,02
518,671	15,1
519,018	15,17
519,365	15,27
519,711	15,32
520,058	15,41
520,405	15,47
520,752	15,56
521,099	15,63
521,445	15,7
521,792	15,76
522,138	15,84
522,485	15,97
522,832	16,06
523,178	16,15
523,524	16,24
523,871	16,33
524,217	16,4
524,563	16,45
524,91	16,57
525,256	16,71
525,602	16,79
525,948	16,84
526,294	16,89
526,64	16,91
526,986	16,96
527,332	17
527,678	17,02
528,024	17,03
528,37	17,07
528,716	17,1
529,061	17,14
529,407	17,17
529,753	17,21
530,098	17,25
530,444	17,3
530,789	17,33
531,135	17,37
531,48	17,41
531,826	17,47
532,171	17,51
532,516	17,52
532,862	17,58
533,207	17,62
533,552	17,67
533,897	17,7
534,242	17,71
534,587	17,74
534,932	17,76
535,277	17,8
535,622	17,81
535,967	17,84
536,312	17,87
536,657	17,9
537,001	17,95
537,346	18
537,691	18,05
538,035	18,1
538,38	18,12
538,724	18,15
539,069	18,17
539,413	18,18
539,758	18,21
540,102	18,22
540,446	18,25
540,791	18,28
541,135	18,32
541,479	18,35
541,823	18,36
542,167	18,38
542,512	18,41
542,856	18,42
543,2	18,45
543,543	18,44
543,887	18,46
544,231	18,48
544,575	18,49
544,919	18,5
545,262	18,53
545,606	18,57
545,95	18,6
546,293	18,62
546,637	18,64
546,98	18,66
547,324	18,67
547,667	18,7
548,011	18,69
548,354	18,7
548,697	18,73
549,04	18,75
549,384	18,78
549,727	18,75
550,07	18,76
550,413	18,77
550,756	18,8
551,099	18,81
551,442	18,8
551,785	18,82
552,128	18,81
552,47	18,77
552,813	18,72
553,156	18,71
553,499	18,72
553,841	18,71
554,184	18,7
554,526	18,68
554,869	18,66
555,211	18,65
555,554	18,62
555,896	18,59
556,238	18,57
556,581	18,55
556,923	18,56
557,265	18,55
557,607	18,5
557,949	18,5
558,291	18,46
558,633	18,43
558,975	18,37
559,317	18,36
559,659	18,35
560,001	18,32
560,343	18,25
560,685	18,2
561,026	18,17
561,368	18,17
561,71	18,13
562,051	18,1
562,393	18,12
562,734	18,07
563,076	18,02
563,417	17,97
563,759	17,93
564,1	17,89
564,441	17,88
564,782	17,86
565,124	17,77
565,465	17,73
565,806	17,69
566,147	17,68
566,488	17,65
566,829	17,61
567,17	17,6
567,511	17,6
567,851	17,58
568,192	17,55
568,533	17,48
568,874	17,46
569,214	17,38
569,555	17,32
569,895	17,27
570,236	17,21
570,576	17,18
570,917	17,14
571,257	17,08
571,598	17,03
571,938	16,99
572,278	17,01
572,618	16,97
572,959	16,93
573,299	16,91
573,639	16,89
573,979	16,84
574,319	16,81
574,659	16,79
574,999	16,74
575,339	16,69
575,678	16,64
576,018	16,6
576,358	16,57
576,698	16,56
577,037	16,54
577,377	16,51
577,716	16,47
578,056	16,45
578,395	16,4
578,735	16,35
579,074	16,31
579,413	16,23
579,753	16,19
580,092	16,17
580,431	16,08
580,77	16,04
581,109	16,01
581,448	15,97
581,787	15,88
582,126	15,86
582,465	15,83
582,804	15,81
583,143	15,79
583,482	15,82
583,82	15,8
584,159	15,75
584,498	15,73
584,836	15,69
585,175	15,64
585,514	15,61
585,852	15,6
586,19	15,57
586,529	15,54
586,867	15,55
587,205	15,52
587,544	15,53
587,882	15,5
588,22	15,49
588,558	15,51
588,896	15,55
589,234	15,52
589,572	15,51
589,91	15,5
590,248	15,5
590,586	15,48
590,924	15,48
591,262	15,51
591,599	15,46
591,937	15,49
592,275	15,5
592,612	15,54
592,95	15,52
593,287	15,54
593,625	15,55
593,962	15,54
594,299	15,54
594,637	15,54
594,974	15,51
595,311	15,53
595,648	15,47
595,985	15,42
596,322	15,41
596,659	15,39
596,996	15,38
597,333	15,33
597,67	15,32
598,007	15,28
598,344	15,24
598,681	15,25
599,017	15,17
599,354	15,12
599,691	15,09
600,027	15,08
600,364	15,06
600,7	15,03
601,037	15,03
601,373	14,98
601,71	14,94
602,046	15
602,382	14,99
602,718	14,99
603,054	15
603,391	15,03
603,727	15,05
604,063	15,08
604,399	15,1
604,735	15,11
605,071	15,11
605,406	15,13
605,742	15,1
606,078	15,11
606,414	15,13
606,749	15,08
607,085	15,07
607,421	15,04
607,756	15,02
608,092	14,99
608,427	14,98
608,762	14,95
609,098	14,88
609,433	14,82
609,768	14,8
610,104	14,77
610,439	14,71
610,774	14,7
611,109	14,65
611,444	14,59
611,779	14,53
612,114	14,48
612,449	14,42
612,784	14,44
613,118	14,38
613,453	14,34
613,788	14,32
614,123	14,31
614,457	14,32
614,792	14,3
615,126	14,26
615,461	14,24
615,795	14,26
616,13	14,25
616,464	14,23
616,798	14,22
617,132	14,17
617,467	14,13
617,801	14,09
618,135	14,1
618,469	14,14
618,803	14,1
619,137	14,12
619,471	14,13
619,805	14,1
620,139	14,13
620,472	14,12
620,806	14,13
621,14	14,08
621,473	14,09
621,807	14,07
622,141	14,06
622,474	14,05
622,808	14,04
623,141	14,04
623,474	14,07
623,808	14,08
624,141	14,05
624,474	14,03
624,807	14,01
625,141	13,99
625,474	13,95
625,807	13,96
626,14	13,9
626,473	13,92
626,806	13,96
627,138	13,96
627,471	13,94
627,804	13,89
628,137	13,93
628,469	13,87
628,802	13,87
629,135	13,88
629,467	13,87
629,8	13,84
630,132	13,78
630,465	13,7
630,797	13,65
631,129	13,65
631,461	13,64
631,794	13,67
632,126	13,66
632,458	13,67
632,79	13,66
633,122	13,7
633,454	13,67
633,786	13,63
634,118	13,6
634,45	13,56
634,781	13,57
635,113	13,56
635,445	13,59
635,777	13,57
636,108	13,56
636,44	13,54
636,771	13,54
637,103	13,59
637,434	13,61
637,765	13,63
638,097	13,67
638,428	13,68
638,759	13,63
639,09	13,59
639,422	13,57
639,753	13,52
640,084	13,49
640,415	13,52
640,746	13,5
641,077	13,47
641,407	13,47
641,738	13,46
642,069	13,37
642,4	13,3
642,73	13,29
643,061	13,23
643,392	13,23
643,722	13,25
644,053	13,26
644,383	13,27
644,713	13,21
645,044	13,18
645,374	13,2
645,704	13,17
646,034	13,14
646,365	13,16
646,695	13,16
647,025	13,15
647,355	13,08
647,685	13,04
648,015	13,03
648,344	13,04
648,674	12,99
649,004	13,01
649,334	12,97
649,663	12,94
649,993	12,91
650,323	12,9
650,652	12,85
650,982	12,78
651,311	12,71
651,64	12,67
651,97	12,67
652,299	12,62
652,628	12,62
652,958	12,66
653,287	12,58
653,616	12,55
653,945	12,49
654,274	12,51
654,603	12,52
654,932	12,51
655,261	12,46
655,589	12,43
655,918	12,39
656,247	12,42
656,576	12,44
656,904	12,41
657,233	12,38
657,561	12,35
657,89	12,28
658,218	12,3
658,547	12,32
658,875	12,29
659,203	12,29
659,532	12,27
659,86	12,18
660,188	12,18
660,516	12,14
660,844	12,08
661,172	11,96
661,5	11,92
661,828	11,89
662,156	11,94
662,484	11,95
662,811	11,92
663,139	11,9
663,467	11,86
663,794	11,9
664,122	11,9
664,45	11,86
664,777	11,9
665,104	11,9
665,432	11,87
665,759	11,85
666,086	11,8
666,414	11,76
666,741	11,76
667,068	11,78
667,395	11,82
667,722	11,88
668,049	11,95
668,376	11,94
668,703	11,91
669,03	11,86
669,357	11,85
669,683	11,87
670,01	11,91
670,337	11,91
670,663	11,87
670,99	11,8
671,317	11,81
671,643	11,81
671,969	11,78
672,296	11,76
672,622	11,75
672,948	11,75
673,275	11,75
673,601	11,76
673,927	11,76
674,253	11,78
674,579	11,78
674,905	11,72
675,231	11,75
675,557	11,75
675,883	11,79
676,209	11,8
676,534	11,78
676,86	11,71
677,186	11,77
677,511	11,77
677,837	11,85
678,162	11,9
678,488	11,91
678,813	11,91
679,139	11,94
679,464	11,95
679,789	11,96
680,114	12,05
680,44	12,09
680,765	12,05
681,09	12,06
681,415	12,1
681,74	12,21
682,065	12,22
682,39	12,28
682,714	12,33
683,039	12,39
683,364	12,42
683,689	12,47
684,013	12,43
684,338	12,44
684,662	12,43
684,987	12,4
685,311	12,41
685,636	12,48
685,96	12,55
686,284	12,61
686,608	12,65
686,933	12,61
687,257	12,67
687,581	12,82
687,905	12,82
688,229	12,91
688,553	13,01
688,877	13,09
689,201	13,2
689,524	13,28
689,848	13,37
690,172	13,53
690,496	13,64
690,819	13,83
691,143	13,99
691,466	14,16
691,79	14,35
692,113	14,56
692,436	14,7
692,76	14,84
693,083	15,01
693,406	15,23
693,729	15,44
694,053	15,56
694,376	15,72
694,699	16,02
695,022	16,17
695,344	16,29
695,667	16,47
695,99	16,65
696,313	16,82
696,636	16,96
696,958	17,14
697,281	17,31
697,604	17,47
697,926	17,68
698,249	17,88
698,571	18,06
698,893	18,19
699,216	18,36
699,538	18,54
699,86	18,73
700,182	18,95
700,504	19,15
700,827	19,35
701,149	19,53
701,471	19,67
701,793	19,89
702,114	20,18
702,436	20,52
702,758	20,79
703,08	21,05
703,401	21,39
703,723	21,68
704,045	22,03
704,366	22,3
704,688	22,52
705,009	22,67
705,331	22,91
705,652	23,17
705,973	23,4
706,294	23,55
706,616	23,8
706,937	23,95
707,258	24,16
707,579	24,45
707,9	24,61
708,221	24,9
708,542	25,14
708,863	25,35
709,183	25,53
709,504	25,69
709,825	25,97
710,145	26,32
710,466	26,57
710,787	26,79
711,107	26,96
711,427	27,27
711,748	27,63
712,068	27,83
712,388	28
712,709	28,25
713,029	28,55
713,349	28,72
713,669	28,92
713,989	29,16
714,309	29,42
714,629	29,67
714,949	29,9
715,269	30,25
715,589	30,54
715,908	30,89
716,228	31,34
716,548	31,61
716,867	31,78
717,187	31,96
717,506	32,21
717,826	32,51
718,145	32,7
718,465	32,94
718,784	33,31
719,103	33,72
719,422	34,09
719,741	34,52
720,061	34,96
720,38	35,27
720,699	35,51
721,018	35,88
721,336	36,36
721,655	36,69
721,974	37
722,293	37,17
722,612	37,36
722,93	37,62
723,249	37,95
723,567	38,26
723,886	38,6
724,204	38,89
724,523	39,27
724,841	39,57
725,159	39,84
725,477	40,01
725,796	40,21
726,114	40,6
726,432	40,77
726,75	41,03
727,068	41,33
727,386	41,61
727,704	41,76
728,022	41,96
728,339	42,24
728,657	42,45
728,975	42,9
729,292	43,35
729,61	43,49
729,928	43,59
730,245	43,67
730,562	43,92
730,88	44,1
731,197	44,35
731,514	44,56
731,832	44,77
732,149	45,12
732,466	45,34
732,783	45,48
733,1	45,64
733,417	45,78
733,734	46,01
734,051	46,27
734,368	46,44
734,684	46,56
735,001	46,76
735,318	46,9
735,634	46,92
735,951	46,96
736,268	47,15
736,584	47,5
736,9	47,94
737,217	48,11
737,533	48,37
737,849	48,35
738,166	48,61
738,482	48,84
738,798	48,77
739,114	48,94
739,43	49,1
739,746	49,39
740,062	49,61
740,378	49,87
740,693	50,09
741,009	50,29
741,325	50,57
741,641	50,72
741,956	50,93
742,272	51,09
742,587	51,31
742,903	51,57
743,218	51,68
743,533	51,61
743,849	51,85
744,164	51,87
744,479	52,06
744,794	52,01
745,109	51,93
745,424	52,08
745,739	52,1
746,054	52,14
746,369	52,12
746,684	52,17
746,999	52,14
747,313	52,2
747,628	52,3
747,943	52,18
748,257	52,06
748,572	52,07
748,886	52,16
749,201	52,16
749,515	52,04
749,829	52,08
750,144	52,3
750,458	52,23
750,772	52,3
751,086	52,5
751,4	52,61
751,714	52,78
752,028	52,98
752,342	53,21
752,656	53,28
752,97	53,22
753,284	53,13
753,597	53,03
753,911	53,01
754,225	52,94
754,538	53,17
754,852	53,35
755,165	53,48
755,478	53,39
755,792	53,33
756,105	53,22
756,418	53,22
756,731	53,2
757,045	53,49
757,358	53,76
757,671	53,7
757,984	53,63
758,297	53,69
758,609	53,55
758,922	53,31
759,235	53,32
759,548	53,62
759,86	53,75
760,173	53,85
760,486	53,83
760,798	53,82
761,111	53,77
761,423	53,87
761,735	53,72
762,048	53,85
762,36	53,96
762,672	54,11
762,984	54,13
763,296	54,14
763,608	53,9
763,92	53,73
764,232	53,77
764,544	53,71
764,856	53,69
765,168	53,81
765,48	54,04
765,791	54,06
766,103	53,98
766,414	53,92
766,726	53,89
767,037	53,9
767,349	53,99
767,66	54,12
767,972	54,02
768,283	54,21
768,594	54,28
768,905	54,32
769,216	54,26
769,527	54,24
769,838	54,01
770,149	54
770,46	54,06
770,771	53,98
771,082	54,12
771,393	54,33
771,703	54,44
772,014	54,33
772,324	53,99
772,635	53,81
772,945	53,59
773,256	53,65
773,566	53,55
773,877	53,77
774,187	53,71
774,497	53,86
774,807	53,65
775,117	53,53
775,427	53,34
775,737	53,24
776,047	53,19
776,357	53,27
776,667	53,57
776,977	53,57
777,287	53,48
777,596	53,67
777,906	53,45
778,216	53,19
778,525	53,3
778,835	53,49
779,144	53,71
779,453	54,06
779,763	54,16
780,072	54,28
780,381	53,79
780,69	53,45
781	53,17
781,309	53,05
781,618	53
781,927	53,29
782,235	53,66
782,544	53,67
782,853	54,08
783,162	54,08
783,471	53,7
783,779	53,67
784,088	53,51
784,396	53,56
784,705	53,42
785,013	53,45
785,322	53,59
785,63	53,77
785,938	53,68
786,246	53,45
786,554	53,07
786,863	53,13
787,171	53,05
787,479	53,21
787,787	53,35
788,094	53,12
788,402	52,85
788,71	52,5
789,018	52,65
789,326	52,65
789,633	52,66
789,941	53,23
790,248	53,44
790,556	53,58
790,863	53,5
791,171	53,88
791,478	53,65
791,785	53,61
792,092	53,43
792,399	53,35
792,707	53,62
793,014	54,37
793,321	54,68
793,628	54,88
793,934	55,28
794,241	55,75
794,548	56,32
794,855	56,58
795,161	56,95
795,468	57,3
795,775	56,86
796,081	56,55
796,388	55,97
796,694	55,57
797	55,38
797,307	55,35
797,613	54,97
797,919	55,11
798,225	54,99
798,531	55,12
798,837	55,39
799,143	55,31
799,449	55,23
799,755	55,04
800,061	55,09
800,367	54,43
800,672	54,06
800,978	53,77
801,284	53,24
801,589	53
801,895	52,7
802,2	53,02
802,506	53,14
802,811	53,56
803,116	53,72
803,421	53,75
803,727	54,23
804,032	54,56
804,337	54,33
804,642	54,04
804,947	53,43
805,252	53,2
805,556	53,05
805,861	52,44
806,166	52,47
806,471	52,47
806,775	52,68
807,08	52,86
807,384	53,07
807,689	53,21
807,993	53,11
808,298	52,89
808,602	52,52
808,906	52,34
809,211	52,16
809,515	51,75
809,819	51,95
810,123	51,57
810,427	51,4
810,731	51,62
811,035	52,1
811,338	52,27
811,642	52,18
811,946	52,55
812,25	52,84
812,553	52,37
812,857	52,26
813,16	51,88
813,464	51,55
813,767	51,34
814,07	51,38
814,374	51,74
814,677	51,59
814,98	51,91
815,283	51,87
815,586	52,1
815,889	52,18
816,192	51,95
816,495	51,45
816,798	51,45
817,101	51,24
817,404	51,49
817,706	51,63
818,009	51,56
818,312	51,5
818,614	51,64
818,917	51,95
819,219	52,32
819,521	52,71
819,824	52,85
820,126	53,14
820,428	53,13
820,73	53,39
821,032	53,46
821,334	53,57
821,636	53,78
821,938	53,81
822,24	53,83
822,542	54,02
822,844	54,19
823,145	54,31
823,447	54,52
823,749	54,52
824,05	54,58
824,352	54,69
824,653	54,73
824,955	54,76
825,256	54,75
825,557	54,79
825,858	54,86
826,16	55,04
826,461	55,17
826,762	55,51
827,063	55,61
827,364	55,83
827,665	56,01
827,965	55,92
828,266	55,91
828,567	56,18
828,868	56,02
829,168	55,86
829,469	55,68
829,769	55,38
830,07	55,44
830,37	55,31
830,67	55,01
830,971	54,72
831,271	54,4
831,571	54,42
831,871	54,2
832,171	53,85
832,471	53,33
832,771	53,14
833,071	52,99
833,371	52,72
833,671	52,74
833,971	52,43
834,27	52,35
834,57	52,57
834,869	52,52
835,169	52,44
835,468	52,47
835,768	52,29
836,067	52,24
836,367	51,65
836,666	51,72
836,965	51,86
837,264	51,79
837,563	51,81
837,862	52,15
838,161	52,41
838,46	53,09
838,759	53,18
839,058	52,54
839,356	52,07
839,655	51,75
839,954	51,82
840,252	51,85
840,551	51,39
840,849	50,43
841,148	50,53
841,446	50,45
841,744	50,39
842,043	50,35
842,341	50,08
842,639	50,68
842,937	50,47
843,235	50,87
843,533	51,79
843,831	51,96
844,129	50,91
844,427	49,35
844,724	47,62
845,022	47,06
845,32	47,88
845,617	48,06
845,915	46,82
846,212	45,81
846,51	44,94
846,807	44,33
847,104	44,53
847,402	43,57
847,699	42,51
847,996	41,29
848,293	42,3
848,59	42,18
848,887	41,44
849,184	40,57
849,481	39,8
849,778	38,48
850,074	39,61
850,371	39,81
850,668	41,2
850,964	42,49
851,261	43,66
851,557	41,51
851,854	40,04
852,15	40,71
852,446	39,8
852,743	39,88
853,039	41,26
853,335	42,16
853,631	41,69
853,927	42,74
854,223	44,1
854,519	43,88
854,815	43,52
855,111	43,71
855,406	45
855,702	45,31
855,998	44,83
856,293	44,84
856,589	46,03
856,884	47,67
857,18	47,96
857,475	48,04
857,77	50,21
858,066	49,77
858,361	48,25
858,656	49,08
858,951	49,71
859,246	49,83
859,541	49,83
859,836	50,74
860,131	50,42
860,426	49,89
860,72	48,38
861,015	46,32
861,31	46,19
861,604	46,8
861,899	46,39
862,193	47,48
862,487	47,09
862,782	47,23
863,076	44,95
863,37	41,07
863,664	40,98
863,959	41,79
864,253	43,56
864,547	45,18
864,841	42,71
865,135	40,95
865,428	41,02
865,722	40,57
866,016	40,37
866,31	40,43
866,603	39,14
866,897	39,54
867,19	40,39
867,484	38,89
867,777	39,88
868,07	40,15
868,364	39,08
868,657	38,28
868,95	36,87
869,243	35,87
869,536	37,89
869,829	35,75
870,122	34,86
870,415	34,92
870,708	34,44
871	35,38
871,293	36,52
871,586	37,38
871,878	37,78
872,171	37,72
872,463	36,57
872,756	36,72
873,048	35,95
873,341	37,1
873,633	39,06
873,925	36,23
874,217	34,71
874,509	34,9
874,801	34,76
875,093	34,15
875,385	35,9
875,677	36,94
875,969	41,8
