Data from palm_camino1_d_45_25_Reflection_00001.txt Node
Date: Fri Feb 11 15:48:02 ART 2022
User: Nati
Spectrometer: USB2E3644
Trigger mode: 4
Integration Time (sec): 3,520000E-1
Scans to average: 10
Electric dark correction enabled: true
Nonlinearity correction enabled: false
Boxcar width: 10
XAxis mode: Wavelengths
Number of Pixels in Spectrum: 2048
>>>>>Begin Spectral Data<<<<<
178,315	167,44
178,696	178,72
179,076	136,65
179,457	123,75
179,838	78,95
180,218	630
180,599	-450
180,979	102,78
181,36	143,62
181,74	195,65
182,121	228,36
182,501	300
182,881	234,55
183,262	93
183,642	102,44
184,022	125,24
184,402	309,38
184,783	421,15
185,163	623,08
185,543	1029,73
185,923	670,31
186,303	524,18
186,683	694,29
187,063	573,63
187,443	600
187,823	590,11
188,203	745,71
188,583	1053,06
188,963	653,16
189,343	900
189,723	-5737,5
190,102	-1036,36
190,482	-860,38
190,862	-747,69
191,242	-499,01
191,621	-485,45
192,001	-461,95
192,38	-448,6
192,76	-317,14
193,14	-226,83
193,519	-224,52
193,898	-114,92
194,278	-58,15
194,657	-41,65
195,037	-34,35
195,416	-28,54
195,795	-11,56
196,175	-7,16
196,554	-13,32
196,933	-20,3
197,312	-27,27
197,692	-21,33
198,071	-10,15
198,45	-5,65
198,829	-4,6
199,208	-3,71
199,587	-6,5
199,966	-7,59
200,345	-12,81
200,724	-20,03
201,103	-18,9
201,482	-15,97
201,86	-24,2
202,239	-31,65
202,618	-34,24
202,997	-23,59
203,375	-20,64
203,754	-22,8
204,133	-25,49
204,511	-15,67
204,89	-8,95
205,269	-1,53
205,647	-0,37
206,026	-6,68
206,404	-7,06
206,782	-7,67
207,161	-5,33
207,539	3,28
207,918	11,57
208,296	16,46
208,674	22,87
209,052	21,26
209,431	23,8
209,809	20,24
210,187	17,99
210,565	20,03
210,943	15,63
211,321	7,45
211,699	7,7
212,077	10,29
212,455	3,44
212,833	7,67
213,211	11,28
213,589	5,54
213,967	4,85
214,345	-7,75
214,722	-10,41
215,1	-11,46
215,478	-22,61
215,855	-26,49
216,233	-30,38
216,611	-47,28
216,988	-50,96
217,366	-69,02
217,743	-52,79
218,121	-42,13
218,498	-49,28
218,876	-57,93
219,253	-39,3
219,631	-46,15
220,008	-50,16
220,385	-46,62
220,762	-70,38
221,14	-56,76
221,517	-39,05
221,894	-24,12
222,271	-12,19
222,648	-17,73
223,025	-25,4
223,402	-26,77
223,78	-32,07
224,157	-34,91
224,533	-35,48
224,91	-40,08
225,287	-33,39
225,664	-25,3
226,041	-19,01
226,418	-23,43
226,795	-22,64
227,171	-27,69
227,548	-25,36
227,925	-26,57
228,301	-27,64
228,678	-23,8
229,055	-19,52
229,431	-21,35
229,808	-21,45
230,184	-22,72
230,561	-16,23
230,937	-8,43
231,313	-7,78
231,69	-3,34
232,066	0,97
232,442	3,46
232,819	8,55
233,195	12,82
233,571	7,91
233,947	2,76
234,323	5,28
234,699	7,25
235,075	6,27
235,451	6,24
235,827	9,98
236,203	10,25
236,579	9,27
236,955	6,31
237,331	10,86
237,707	14
238,083	16,72
238,459	15,16
238,834	14,95
239,21	14,21
239,586	12,44
239,961	9,6
240,337	10,04
240,713	10,43
241,088	9,79
241,464	12,43
241,839	14,69
242,215	16,19
242,59	16,57
242,965	17,4
243,341	17,65
243,716	17,15
244,091	18,66
244,467	19,45
244,842	19,61
245,217	19,48
245,592	19,32
245,967	19,37
246,343	19,54
246,718	19,33
247,093	20,5
247,468	20,89
247,843	22,22
248,218	22,73
248,593	22,67
248,967	22,9
249,342	22,54
249,717	22,91
250,092	22,99
250,467	22,42
250,841	22,31
251,216	22,64
251,591	22,97
251,965	21,29
252,34	20,39
252,714	19,67
253,089	18,23
253,463	17,45
253,838	17,18
254,212	17,35
254,587	17,38
254,961	17,76
255,335	17,81
255,71	17,48
256,084	17,15
256,458	17,42
256,832	17,61
257,206	17,51
257,581	17,45
257,955	17,58
258,329	17,76
258,703	17,54
259,077	18,03
259,451	17,94
259,825	18,21
260,199	18,18
260,572	17,79
260,946	17,85
261,32	17,94
261,694	17,84
262,068	17,9
262,441	17,76
262,815	16,88
263,189	16,4
263,562	16,37
263,936	15,88
264,309	15,3
264,683	15,21
265,056	15,26
265,43	15,54
265,803	15,88
266,176	16,12
266,55	16,53
266,923	15,99
267,296	16
267,67	16,44
268,043	16,72
268,416	17,07
268,789	17,13
269,162	17,34
269,535	17,93
269,908	17,92
270,281	17,93
270,654	18,24
271,027	18,6
271,4	18,89
271,773	19,54
272,146	19,78
272,519	19,52
272,891	19,39
273,264	18,81
273,637	18,1
274,01	18,25
274,382	18,21
274,755	18,15
275,127	18,18
275,5	18,12
275,872	18,26
276,245	18,39
276,617	18,29
276,99	17,93
277,362	17,36
277,734	17,2
278,107	17,46
278,479	17,33
278,851	16,73
279,223	15,97
279,596	15,64
279,968	15,62
280,34	15,52
280,712	15,67
281,084	15,53
281,456	15,45
281,828	15,31
282,2	15,23
282,572	15,69
282,944	15,58
283,315	15,25
283,687	14,98
284,059	14,98
284,431	15,08
284,802	14,85
285,174	14,85
285,546	15,04
285,917	15,31
286,289	15,47
286,66	15,93
287,032	16,04
287,403	16,11
287,775	16,24
288,146	16,58
288,518	16,61
288,889	16,53
289,26	16,73
289,632	16,99
290,003	17,15
290,374	16,93
290,745	17
291,116	17,34
291,487	17,54
291,858	17,38
292,229	17,21
292,6	17,48
292,971	17,27
293,342	16,75
293,713	16,15
294,084	15,83
294,455	15,86
294,826	15,91
295,196	15,98
295,567	16,08
295,938	15,79
296,308	15,65
296,679	15,75
297,05	15,71
297,42	15,45
297,791	15,35
298,161	15,33
298,532	15,2
298,902	15,1
299,272	15,07
299,643	15,25
300,013	15,58
300,383	15,67
300,754	15,95
301,124	16,23
301,494	16,51
301,864	16,63
302,234	16,27
302,604	16,16
302,974	16,03
303,344	15,84
303,714	15,83
304,084	15,82
304,454	15,87
304,824	15,88
305,194	16,05
305,563	16,12
305,933	16,04
306,303	16,26
306,673	16,2
307,042	16,14
307,412	15,97
307,781	15,71
308,151	15,74
308,521	15,84
308,89	15,8
309,259	15,68
309,629	15,65
309,998	15,67
310,368	15,65
310,737	15,5
311,106	15,27
311,475	14,95
311,845	14,96
312,214	14,93
312,583	14,99
312,952	14,88
313,321	14,87
313,69	14,97
314,059	14,88
314,428	15,01
314,797	15,19
315,166	15,31
315,535	15,45
315,904	15,52
316,272	15,45
316,641	15,39
317,01	15,18
317,379	15,1
317,747	15,34
318,116	15,62
318,484	15,67
318,853	15,6
319,221	15,78
319,59	15,49
319,958	15,56
320,327	15,37
320,695	15,34
321,063	15,5
321,432	15,58
321,8	15,38
322,168	15,22
322,536	14,94
322,905	14,94
323,273	14,94
323,641	14,9
324,009	14,86
324,377	14,72
324,745	14,77
325,113	14,74
325,481	14,51
325,849	14,37
326,216	14,38
326,584	14,56
326,952	14,61
327,32	14,87
327,687	15,04
328,055	15,23
328,423	15,21
328,79	15,14
329,158	14,95
329,525	15
329,893	14,92
330,26	15,09
330,628	14,94
330,995	14,91
331,362	14,8
331,73	14,63
332,097	14,75
332,464	14,69
332,831	14,72
333,199	14,84
333,566	14,9
333,933	14,97
334,3	14,87
334,667	14,77
335,034	14,56
335,401	14,33
335,768	14,18
336,135	14,21
336,502	14,14
336,868	14,15
337,235	14,24
337,602	14,34
337,969	14,24
338,335	14,21
338,702	14,21
339,069	14,2
339,435	14,29
339,802	14,33
340,168	14,4
340,535	14,32
340,901	14,27
341,267	14,19
341,634	14,11
342	14,17
342,366	14,23
342,733	14,21
343,099	14,1
343,465	14,05
343,831	13,98
344,197	14,01
344,563	14,03
344,929	13,88
345,295	13,83
345,661	13,91
346,027	14,01
346,393	13,83
346,759	13,7
347,125	13,65
347,491	13,63
347,856	13,68
348,222	13,69
348,588	13,65
348,953	13,63
349,319	13,6
349,684	13,54
350,05	13,5
350,415	13,53
350,781	13,7
351,146	13,76
351,512	13,7
351,877	13,61
352,242	13,56
352,608	13,61
352,973	13,7
353,338	13,71
353,703	13,72
354,068	13,8
354,433	13,94
354,798	13,99
355,164	13,99
355,528	13,91
355,893	13,85
356,258	13,85
356,623	13,86
356,988	13,87
357,353	13,84
357,718	13,78
358,082	13,81
358,447	13,72
358,812	13,69
359,176	13,69
359,541	13,64
359,905	13,58
360,27	13,55
360,634	13,48
360,999	13,38
361,363	13,29
361,728	13,26
362,092	13,21
362,456	13,04
362,821	13,02
363,185	12,97
363,549	12,99
363,913	12,97
364,277	12,93
364,641	12,93
365,005	12,96
365,369	12,99
365,733	12,95
366,097	12,92
366,461	12,94
366,825	12,92
367,189	12,99
367,553	12,96
367,916	12,96
368,28	12,95
368,644	12,95
369,007	12,97
369,371	12,95
369,734	12,91
370,098	13,01
370,461	12,95
370,825	12,93
371,188	12,97
371,552	12,96
371,915	12,93
372,278	12,92
372,642	12,91
373,005	12,87
373,368	12,82
373,731	12,8
374,094	12,76
374,457	12,75
374,82	12,71
375,183	12,72
375,546	12,73
375,909	12,68
376,272	12,68
376,635	12,64
376,998	12,62
377,361	12,66
377,723	12,67
378,086	12,71
378,449	12,74
378,811	12,7
379,174	12,69
379,537	12,67
379,899	12,66
380,262	12,67
380,624	12,66
380,987	12,68
381,349	12,72
381,711	12,74
382,074	12,74
382,436	12,79
382,798	12,89
383,16	12,77
383,522	12,66
383,884	12,6
384,247	12,64
384,609	12,65
384,971	12,57
385,333	12,59
385,695	12,56
386,056	12,57
386,418	12,63
386,78	12,71
387,142	12,71
387,504	12,71
387,865	12,69
388,227	12,72
388,589	12,76
388,95	12,73
389,312	12,71
389,673	12,76
390,035	12,71
390,396	12,64
390,758	12,73
391,119	12,86
391,48	12,89
391,842	12,87
392,203	12,87
392,564	12,91
392,925	12,89
393,286	12,87
393,648	12,91
394,009	12,91
394,37	12,85
394,731	12,89
395,092	12,88
395,452	12,9
395,813	12,9
396,174	12,89
396,535	12,92
396,896	12,92
397,257	12,9
397,617	12,93
397,978	13,03
398,338	12,97
398,699	12,97
399,06	13,05
399,42	13,01
399,781	13,03
400,141	13
400,501	13,02
400,862	13,09
401,222	13,06
401,582	13,08
401,943	13,11
402,303	13,11
402,663	13,15
403,023	13,2
403,383	13,2
403,743	13,24
404,103	13,27
404,463	13,31
404,823	13,34
405,183	13,35
405,543	13,31
405,903	13,37
406,262	13,37
406,622	13,36
406,982	13,45
407,342	13,48
407,701	13,55
408,061	13,58
408,42	13,59
408,78	13,61
409,139	13,64
409,499	13,67
409,858	13,7
410,217	13,72
410,577	13,73
410,936	13,77
411,295	13,79
411,655	13,78
412,014	13,87
412,373	13,95
412,732	14
413,091	14,05
413,45	14,14
413,809	14,24
414,168	14,29
414,527	14,31
414,886	14,37
415,245	14,4
415,603	14,46
415,962	14,5
416,321	14,54
416,679	14,57
417,038	14,59
417,397	14,63
417,755	14,67
418,114	14,71
418,472	14,74
418,831	14,78
419,189	14,83
419,547	14,82
419,906	14,86
420,264	14,89
420,622	14,93
420,981	14,96
421,339	14,98
421,697	15,01
422,055	15,06
422,413	15,1
422,771	15,14
423,129	15,15
423,487	15,19
423,845	15,25
424,203	15,28
424,56	15,33
424,918	15,38
425,276	15,45
425,634	15,47
425,991	15,54
426,349	15,57
426,707	15,63
427,064	15,67
427,422	15,72
427,779	15,78
428,137	15,83
428,494	15,89
428,851	15,98
429,209	16,04
429,566	16,11
429,923	16,15
430,28	16,22
430,637	16,34
430,995	16,36
431,352	16,41
431,709	16,46
432,066	16,48
432,423	16,52
432,78	16,54
433,137	16,6
433,493	16,63
433,85	16,66
434,207	16,65
434,564	16,69
434,92	16,72
435,277	16,74
435,634	16,76
435,99	16,76
436,347	16,78
436,703	16,8
437,06	16,83
437,416	16,88
437,773	16,9
438,129	16,88
438,485	16,94
438,841	16,94
439,198	16,96
439,554	17,01
439,91	17,03
440,266	17,04
440,622	17,06
440,978	17,08
441,334	17,11
441,69	17,17
442,046	17,2
442,402	17,22
442,758	17,25
443,113	17,28
443,469	17,33
443,825	17,36
444,181	17,4
444,536	17,42
444,892	17,44
445,247	17,46
445,603	17,49
445,958	17,49
446,314	17,52
446,669	17,54
447,025	17,56
447,38	17,57
447,735	17,61
448,09	17,63
448,446	17,65
448,801	17,68
449,156	17,68
449,511	17,73
449,866	17,77
450,221	17,79
450,576	17,83
450,931	17,86
451,286	17,88
451,641	17,88
451,995	17,89
452,35	17,93
452,705	17,95
453,06	17,96
453,414	17,99
453,769	17,99
454,123	18,02
454,478	18,02
454,832	18,07
455,187	18,03
455,541	18,05
455,896	18,05
456,25	18,08
456,604	18,11
456,958	18,09
457,313	18,08
457,667	18,1
458,021	18,1
458,375	18,12
458,729	18,16
459,083	18,16
459,437	18,2
459,791	18,17
460,145	18,18
460,499	18,18
460,852	18,17
461,206	18,2
461,56	18,19
461,914	18,2
462,267	18,18
462,621	18,22
462,974	18,23
463,328	18,23
463,681	18,23
464,035	18,23
464,388	18,25
464,742	18,26
465,095	18,26
465,448	18,26
465,801	18,24
466,155	18,22
466,508	18,22
466,861	18,22
467,214	18,25
467,567	18,28
467,92	18,31
468,273	18,31
468,626	18,29
468,979	18,31
469,332	18,3
469,684	18,3
470,037	18,31
470,39	18,31
470,743	18,32
471,095	18,32
471,448	18,31
471,8	18,32
472,153	18,32
472,505	18,32
472,858	18,34
473,21	18,35
473,562	18,38
473,915	18,4
474,267	18,41
474,619	18,39
474,971	18,35
475,324	18,32
475,676	18,35
476,028	18,34
476,38	18,33
476,732	18,34
477,084	18,34
477,436	18,33
477,787	18,31
478,139	18,3
478,491	18,29
478,843	18,29
479,195	18,32
479,546	18,3
479,898	18,32
480,249	18,39
480,601	18,45
480,952	18,49
481,304	18,49
481,655	18,48
482,007	18,47
482,358	18,48
482,709	18,49
483,061	18,48
483,412	18,49
483,763	18,49
484,114	18,48
484,465	18,49
484,816	18,49
485,167	18,49
485,518	18,49
485,869	18,5
486,22	18,51
486,571	18,5
486,922	18,53
487,272	18,53
487,623	18,51
487,974	18,48
488,324	18,45
488,675	18,46
489,025	18,47
489,376	18,48
489,726	18,49
490,077	18,51
490,427	18,52
490,778	18,53
491,128	18,55
491,478	18,57
491,828	18,6
492,179	18,62
492,529	18,64
492,879	18,69
493,229	18,72
493,579	18,74
493,929	18,76
494,279	18,78
494,629	18,8
494,979	18,83
495,328	18,86
495,678	18,91
496,028	18,94
496,378	18,98
496,727	19,02
497,077	19,07
497,426	19,1
497,776	19,1
498,125	19,13
498,475	19,16
498,824	19,2
499,174	19,22
499,523	19,26
499,872	19,28
500,221	19,3
500,571	19,33
500,92	19,37
501,269	19,42
501,618	19,45
501,967	19,49
502,316	19,53
502,665	19,57
503,014	19,63
503,363	19,7
503,711	19,77
504,06	19,84
504,409	19,9
504,758	19,94
505,106	20,04
505,455	20,11
505,803	20,16
506,152	20,2
506,5	20,27
506,849	20,35
507,197	20,43
507,546	20,5
507,894	20,57
508,242	20,63
508,59	20,69
508,939	20,77
509,287	20,85
509,635	20,92
509,983	21
510,331	21,08
510,679	21,16
511,027	21,21
511,375	21,29
511,723	21,36
512,07	21,44
512,418	21,52
512,766	21,59
513,114	21,69
513,461	21,81
513,809	21,89
514,156	22
514,504	22,1
514,851	22,21
515,199	22,32
515,546	22,44
515,893	22,55
516,241	22,66
516,588	22,74
516,935	22,85
517,282	22,95
517,63	23,05
517,977	23,14
518,324	23,25
518,671	23,34
519,018	23,43
519,365	23,52
519,711	23,63
520,058	23,7
520,405	23,8
520,752	23,89
521,099	23,99
521,445	24,09
521,792	24,2
522,138	24,34
522,485	24,48
522,832	24,63
523,178	24,76
523,524	24,88
523,871	25,01
524,217	25,12
524,563	25,22
524,91	25,36
525,256	25,49
525,602	25,63
525,948	25,73
526,294	25,8
526,64	25,86
526,986	25,89
527,332	25,94
527,678	25,99
528,024	26,03
528,37	26,09
528,716	26,12
529,061	26,15
529,407	26,19
529,753	26,25
530,098	26,29
530,444	26,35
530,789	26,4
531,135	26,43
531,48	26,47
531,826	26,52
532,171	26,57
532,516	26,59
532,862	26,62
533,207	26,66
533,552	26,71
533,897	26,78
534,242	26,83
534,587	26,88
534,932	26,95
535,277	26,98
535,622	26,99
535,967	27,04
536,312	27,1
536,657	27,14
537,001	27,18
537,346	27,23
537,691	27,28
538,035	27,31
538,38	27,36
538,724	27,39
539,069	27,4
539,413	27,41
539,758	27,44
540,102	27,47
540,446	27,46
540,791	27,48
541,135	27,49
541,479	27,5
541,823	27,51
542,167	27,51
542,512	27,53
542,856	27,5
543,2	27,51
543,543	27,52
543,887	27,53
544,231	27,54
544,575	27,54
544,919	27,53
545,262	27,57
545,606	27,57
545,95	27,58
546,293	27,61
546,637	27,64
546,98	27,69
547,324	27,69
547,667	27,78
548,011	27,78
548,354	27,8
548,697	27,78
549,04	27,79
549,384	27,79
549,727	27,76
550,07	27,82
550,413	27,81
550,756	27,81
551,099	27,81
551,442	27,81
551,785	27,83
552,128	27,85
552,47	27,81
552,813	27,83
553,156	27,8
553,499	27,78
553,841	27,75
554,184	27,73
554,526	27,7
554,869	27,65
555,211	27,63
555,554	27,63
555,896	27,64
556,238	27,62
556,581	27,61
556,923	27,61
557,265	27,58
557,607	27,56
557,949	27,56
558,291	27,54
558,633	27,49
558,975	27,45
559,317	27,41
559,659	27,39
560,001	27,34
560,343	27,31
560,685	27,28
561,026	27,27
561,368	27,25
561,71	27,22
562,051	27,18
562,393	27,2
562,734	27,09
563,076	27,04
563,417	26,98
563,759	26,91
564,1	26,89
564,441	26,85
564,782	26,8
565,124	26,72
565,465	26,67
565,806	26,66
566,147	26,61
566,488	26,55
566,829	26,49
567,17	26,44
567,511	26,39
567,851	26,36
568,192	26,28
568,533	26,2
568,874	26,17
569,214	26,09
569,555	25,94
569,895	25,92
570,236	25,84
570,576	25,78
570,917	25,72
571,257	25,61
571,598	25,51
571,938	25,46
572,278	25,42
572,618	25,34
572,959	25,27
573,299	25,21
573,639	25,19
573,979	25,14
574,319	25,09
574,659	25,06
574,999	25,01
575,339	24,95
575,678	24,9
576,018	24,81
576,358	24,76
576,698	24,73
577,037	24,7
577,377	24,66
577,716	24,64
578,056	24,62
578,395	24,61
578,735	24,62
579,074	24,58
579,413	24,53
579,753	24,52
580,092	24,47
580,431	24,43
580,77	24,38
581,109	24,3
581,448	24,24
581,787	24,17
582,126	24,1
582,465	24,06
582,804	24,03
583,143	24,04
583,482	23,97
583,82	23,94
584,159	23,88
584,498	23,85
584,836	23,82
585,175	23,77
585,514	23,73
585,852	23,64
586,19	23,64
586,529	23,6
586,867	23,54
587,205	23,49
587,544	23,47
587,882	23,47
588,22	23,45
588,558	23,47
588,896	23,48
589,234	23,47
589,572	23,46
589,91	23,43
590,248	23,37
590,586	23,41
590,924	23,37
591,262	23,36
591,599	23,34
591,937	23,33
592,275	23,29
592,612	23,29
592,95	23,29
593,287	23,25
593,625	23,22
593,962	23,18
594,299	23,17
594,637	23,14
594,974	23,1
595,311	23,09
595,648	23,05
595,985	23,03
596,322	23,01
596,659	23,06
596,996	23,05
597,333	23,01
597,67	23
598,007	23,01
598,344	23,01
598,681	23,04
599,017	22,98
599,354	22,94
599,691	22,9
600,027	22,9
600,364	22,85
600,7	22,88
601,037	22,87
601,373	22,87
601,71	22,86
602,046	22,85
602,382	22,81
602,718	22,82
603,054	22,79
603,391	22,76
603,727	22,68
604,063	22,67
604,399	22,67
604,735	22,63
605,071	22,57
605,406	22,53
605,742	22,47
606,078	22,46
606,414	22,41
606,749	22,36
607,085	22,31
607,421	22,28
607,756	22,21
608,092	22,18
608,427	22,11
608,762	22,07
609,098	22,04
609,433	22,02
609,768	21,96
610,104	21,94
610,439	21,91
610,774	21,92
611,109	21,82
611,444	21,81
611,779	21,81
612,114	21,77
612,449	21,74
612,784	21,72
613,118	21,71
613,453	21,74
613,788	21,73
614,123	21,67
614,457	21,67
614,792	21,66
615,126	21,62
615,461	21,6
615,795	21,54
616,13	21,48
616,464	21,46
616,798	21,44
617,132	21,4
617,467	21,37
617,801	21,29
618,135	21,35
618,469	21,32
618,803	21,27
619,137	21,28
619,471	21,24
619,805	21,19
620,139	21,16
620,472	21,17
620,806	21,16
621,14	21,16
621,473	21,14
621,807	21,12
622,141	21,09
622,474	21,07
622,808	21,1
623,141	21,07
623,474	21,04
623,808	21,01
624,141	20,96
624,474	20,96
624,807	20,92
625,141	20,88
625,474	20,86
625,807	20,83
626,14	20,8
626,473	20,81
626,806	20,81
627,138	20,85
627,471	20,78
627,804	20,75
628,137	20,79
628,469	20,73
628,802	20,72
629,135	20,71
629,467	20,71
629,8	20,72
630,132	20,72
630,465	20,71
630,797	20,74
631,129	20,78
631,461	20,77
631,794	20,83
632,126	20,78
632,458	20,79
632,79	20,81
633,122	20,82
633,454	20,78
633,786	20,73
634,118	20,67
634,45	20,7
634,781	20,72
635,113	20,67
635,445	20,69
635,777	20,67
636,108	20,65
636,44	20,64
636,771	20,61
637,103	20,57
637,434	20,54
637,765	20,49
638,097	20,57
638,428	20,5
638,759	20,42
639,09	20,39
639,422	20,35
639,753	20,33
640,084	20,25
640,415	20,25
640,746	20,29
641,077	20,22
641,407	20,12
641,738	20,07
642,069	20,04
642,4	19,98
642,73	20,04
643,061	19,97
643,392	19,93
643,722	19,91
644,053	19,9
644,383	19,88
644,713	19,84
645,044	19,7
645,374	19,72
645,704	19,69
646,034	19,66
646,365	19,58
646,695	19,63
647,025	19,65
647,355	19,56
647,685	19,46
648,015	19,45
648,344	19,48
648,674	19,43
649,004	19,39
649,334	19,38
649,663	19,25
649,993	19,31
650,323	19,27
650,652	19,16
650,982	19,15
651,311	19,1
651,64	19,07
651,97	19,01
652,299	18,93
652,628	18,95
652,958	18,94
653,287	19,02
653,616	18,79
653,945	18,73
654,274	18,79
654,603	18,74
654,932	18,74
655,261	18,7
655,589	18,69
655,918	18,67
656,247	18,61
656,576	18,64
656,904	18,54
657,233	18,53
657,561	18,49
657,89	18,43
658,218	18,35
658,547	18,29
658,875	18,28
659,203	18,26
659,532	18,19
659,86	18,15
660,188	18,01
660,516	18,08
660,844	18,03
661,172	17,96
661,5	17,92
661,828	17,87
662,156	17,8
662,484	17,71
662,811	17,61
663,139	17,54
663,467	17,44
663,794	17,38
664,122	17,3
664,45	17,25
664,777	17,24
665,104	17,38
665,432	17,24
665,759	17,16
666,086	17,15
666,414	17,07
666,741	17,05
667,068	17,02
667,395	16,94
667,722	16,96
668,049	16,98
668,376	16,95
668,703	16,92
669,03	16,92
669,357	16,89
669,683	16,86
670,01	16,87
670,337	16,81
670,663	16,82
670,99	16,79
671,317	16,78
671,643	16,74
671,969	16,59
672,296	16,65
672,622	16,69
672,948	16,61
673,275	16,62
673,601	16,61
673,927	16,61
674,253	16,64
674,579	16,63
674,905	16,55
675,231	16,55
675,557	16,56
675,883	16,55
676,209	16,6
676,534	16,59
676,86	16,56
677,186	16,58
677,511	16,65
677,837	16,66
678,162	16,72
678,488	16,75
678,813	16,81
679,139	16,88
679,464	16,87
679,789	16,92
680,114	16,95
680,44	16,95
680,765	16,93
681,09	16,96
681,415	16,96
681,74	17,04
682,065	17,12
682,39	17,16
682,714	17,28
683,039	17,28
683,364	17,44
683,689	17,54
684,013	17,65
684,338	17,64
684,662	17,76
684,987	17,85
685,311	17,9
685,636	17,95
685,96	18,01
686,284	18,12
686,608	18,24
686,933	18,36
687,257	18,54
687,581	18,8
687,905	18,9
688,229	19
688,553	19,09
688,877	19,2
689,201	19,32
689,524	19,39
689,848	19,58
690,172	19,67
690,496	19,84
690,819	19,98
691,143	20,17
691,466	20,27
691,79	20,36
692,113	20,6
692,436	20,8
692,76	20,98
693,083	21,17
693,406	21,42
693,729	21,62
694,053	21,77
694,376	21,95
694,699	22,23
695,022	22,54
695,344	22,88
695,667	23,23
695,99	23,58
696,313	23,84
696,636	24,05
696,958	24,27
697,281	24,48
697,604	24,74
697,926	24,94
698,249	25,36
698,571	25,55
698,893	25,69
699,216	25,93
699,538	26,19
699,86	26,44
700,182	26,58
700,504	26,84
700,827	27,18
701,149	27,43
701,471	27,67
701,793	28
702,114	28,28
702,436	28,65
702,758	29,02
703,08	29,44
703,401	29,82
703,723	30,29
704,045	30,69
704,366	31,07
704,688	31,44
705,009	31,56
705,331	31,99
705,652	32,31
705,973	32,51
706,294	32,8
706,616	33,05
706,937	33,36
707,258	33,61
707,579	33,72
707,9	34,03
708,221	34,42
708,542	34,75
708,863	35,09
709,183	35,36
709,504	35,61
709,825	35,92
710,145	36,25
710,466	36,49
710,787	36,78
711,107	37
711,427	37,28
711,748	37,71
712,068	38,05
712,388	38,48
712,709	38,83
713,029	39,22
713,349	39,64
713,669	40
713,989	40,39
714,309	40,85
714,629	41,19
714,949	41,56
715,269	41,9
715,589	42,3
715,908	42,75
716,228	43,15
716,548	43,47
716,867	43,85
717,187	44,19
717,506	44,71
717,826	45,17
718,145	45,64
718,465	45,97
718,784	46,41
719,103	46,7
719,422	47,2
719,741	47,52
720,061	48
720,38	48,52
720,699	49,01
721,018	49,43
721,336	49,83
721,655	50,19
721,974	50,71
722,293	51,09
722,612	51,42
722,93	51,78
723,249	52,29
723,567	52,75
723,886	53,2
724,204	53,59
724,523	54,26
724,841	54,57
725,159	55,06
725,477	55,52
725,796	56
726,114	56,47
726,432	57,06
726,75	57,43
727,068	57,8
727,386	58,14
727,704	58,53
728,022	58,89
728,339	59,31
728,657	59,69
728,975	60,22
729,292	60,61
729,61	61,08
729,928	61,49
730,245	61,81
730,562	62,12
730,88	62,37
731,197	62,54
731,514	62,98
731,832	63,25
732,149	63,53
732,466	64,06
732,783	64,43
733,1	64,76
733,417	65,2
733,734	65,6
734,051	65,98
734,368	66,32
734,684	66,83
735,001	67,13
735,318	67,34
735,634	67,43
735,951	67,74
736,268	68
736,584	68,16
736,9	68,61
737,217	68,98
737,533	69,37
737,849	69,65
738,166	69,98
738,482	70,12
738,798	70,52
739,114	70,78
739,43	71,05
739,746	71,16
740,062	71,12
740,378	71,45
740,693	71,59
741,009	71,81
741,325	72,06
741,641	72,43
741,956	72,8
742,272	73,12
742,587	73,4
742,903	73,62
743,218	74,07
743,533	74,3
743,849	74,56
744,164	74,92
744,479	75,27
744,794	75,48
745,109	75,98
745,424	76,21
745,739	76,22
746,054	76,41
746,369	76,62
746,684	76,94
746,999	76,91
747,313	77,13
747,628	77,43
747,943	77,32
748,257	77,33
748,572	77,55
748,886	77,89
749,201	77,96
749,515	78,22
749,829	78,27
750,144	78,47
750,458	78,73
750,772	78,69
751,086	78,69
751,4	78,99
751,714	78,95
752,028	78,94
752,342	78,97
752,656	78,84
752,97	79,02
753,284	79,03
753,597	79,38
753,911	79,45
754,225	79,5
754,538	79,74
754,852	79,95
755,165	80,05
755,478	79,89
755,792	79,98
756,105	79,88
756,418	80,07
756,731	80,01
757,045	79,96
757,358	80,05
757,671	80,21
757,984	80,15
758,297	80,26
758,609	80,26
758,922	80,41
759,235	80,57
759,548	80,69
759,86	80,84
760,173	80,6
760,486	80,53
760,798	80,49
761,111	80,42
761,423	80,36
761,735	80,31
762,048	80,42
762,36	80,43
762,672	80,41
762,984	80,45
763,296	80,46
763,608	80,5
763,92	80,47
764,232	80,42
764,544	80,29
764,856	80,36
765,168	80,52
765,48	80,56
765,791	80,54
766,103	80,44
766,414	80,4
766,726	80,43
767,037	80,73
767,349	80,78
767,66	80,64
767,972	80,76
768,283	80,77
768,594	80,9
768,905	80,91
769,216	81,33
769,527	81,15
769,838	81,17
770,149	81,24
770,46	81,4
770,771	81,37
771,082	81,53
771,393	81,62
771,703	81,57
772,014	81,67
772,324	81,77
772,635	82,09
772,945	82,39
773,256	82,64
773,566	82,4
773,877	82,35
774,187	82,76
774,497	82,76
774,807	82,65
775,117	82,36
775,427	82,52
775,737	82,28
776,047	82,33
776,357	82,46
776,667	82,02
776,977	81,97
777,287	81,9
777,596	81,7
777,906	81,83
778,216	81,44
778,525	81,17
778,835	81,38
779,144	81,27
779,453	80,94
779,763	80,87
780,072	80,88
780,381	80,95
780,69	80,77
781	80,86
781,309	80,99
781,618	81,12
781,927	81,33
782,235	81,16
782,544	81,24
782,853	80,79
783,162	81,51
783,471	81,55
783,779	81,44
784,088	81,73
784,396	81,58
784,705	81,79
785,013	81,82
785,322	81,63
785,63	81,73
785,938	81,86
786,246	81,44
786,554	81,33
786,863	81,69
787,171	81,41
787,479	81,27
787,787	81,24
788,094	81,2
788,402	80,45
788,71	80,4
789,018	80,14
789,326	80,23
789,633	79,5
789,941	79,64
790,248	79,71
790,556	79,52
790,863	79,49
791,171	79,41
791,478	79,49
791,785	79,49
792,092	79,3
792,399	79,31
792,707	79,44
793,014	79,39
793,321	78,91
793,628	79,23
793,934	79,25
794,241	79,04
794,548	79,28
794,855	79,86
795,161	80,17
795,468	80,52
795,775	80,61
796,081	80,55
796,388	80,58
796,694	80,63
797	80,44
797,307	79,68
797,613	79,42
797,919	79,51
798,225	79,43
798,531	79,45
798,837	79,59
799,143	79,63
799,449	79,7
799,755	79,6
800,061	79,73
800,367	79,6
800,672	79,65
800,978	79,42
801,284	79,27
801,589	79,02
801,895	78,94
802,2	78,98
802,506	79,52
802,811	79,34
803,116	79,4
803,421	79,64
803,727	80,27
804,032	80,77
804,337	80,4
804,642	80,39
804,947	80,03
805,252	79,76
805,556	79,76
805,861	79,43
806,166	79,16
806,471	79,24
806,775	79,36
807,08	79,57
807,384	79,6
807,689	79,8
807,993	79,96
808,298	79,56
808,602	79,3
808,906	78,99
809,211	78,92
809,515	78,7
809,819	78,34
810,123	78,31
810,427	78,11
810,731	78,04
811,035	77,92
811,338	77,9
811,642	77,73
811,946	77,77
812,25	78,21
812,553	78,23
812,857	77,9
813,16	77,43
813,464	77,31
813,767	77,3
814,07	77,52
814,374	77,45
814,677	77,45
814,98	77,8
815,283	77,66
815,586	77,7
815,889	77,8
816,192	77,99
816,495	78,22
816,798	78,67
817,101	79,23
817,404	79,46
817,706	79,91
818,009	79,55
818,312	79,49
818,614	79,47
818,917	79,92
819,219	80,48
819,521	80,51
819,824	80,28
820,126	80,39
820,428	80,21
820,73	80,2
821,032	80,32
821,334	80,45
821,636	80,67
821,938	80,67
822,24	80,7
822,542	80,79
822,844	80,77
823,145	80,85
823,447	80,84
823,749	80,89
824,05	80,8
824,352	80,91
824,653	81,02
824,955	81
825,256	80,98
825,557	80,81
825,858	80,85
826,16	81,08
826,461	81,11
826,762	81,26
827,063	81,39
827,364	81,54
827,665	81,55
827,965	81,55
828,266	81,58
828,567	81,68
828,868	81,75
829,168	81,76
829,469	81,52
829,769	81,52
830,07	81,35
830,37	81,41
830,67	81,22
830,971	80,79
831,271	80,81
831,571	80,74
831,871	81,04
832,171	81,22
832,471	81,14
832,771	81,09
833,071	81,29
833,371	81,22
833,671	81,05
833,971	80,83
834,27	80,46
834,57	80,34
834,869	80,16
835,169	79,92
835,468	80,04
835,768	80,14
836,067	80,16
836,367	80,35
836,666	80,65
836,965	81,06
837,264	81,37
837,563	81,28
837,862	81,62
838,161	81,51
838,46	81,62
838,759	81,59
839,058	81,7
839,356	80,98
839,655	81,07
839,954	80,59
840,252	80,5
840,551	80,65
840,849	80,98
841,148	81,23
841,446	81,74
841,744	81,77
842,043	81,14
842,341	80,42
842,639	79,42
842,937	78,73
843,235	77,93
843,533	77,97
843,831	77,92
844,129	76,81
844,427	76,41
844,724	75,27
845,022	74,34
845,32	74,37
845,617	74,75
845,915	74,24
846,212	74,27
846,51	73,94
846,807	74,87
847,104	74,73
847,402	74,3
847,699	73,37
847,996	72,84
848,293	72,88
848,59	74,83
848,887	76,56
849,184	76,68
849,481	77,51
849,778	76,64
850,074	77,5
850,371	78,06
850,668	77,9
850,964	77,7
851,261	77,46
851,557	76,2
851,854	75,15
852,15	74,92
852,446	74,55
852,743	74,42
853,039	73,71
853,335	73,34
853,631	72,9
853,927	73,09
854,223	74,08
854,519	73,74
854,815	72,43
855,111	71,9
855,406	71,97
855,702	71,6
855,998	72,2
856,293	72,17
856,589	72,2
856,884	72,21
857,18	72,79
857,475	71,12
857,77	70,04
858,066	69,93
858,361	72,03
858,656	71,86
858,951	72,22
859,246	71,88
859,541	70,43
859,836	70,09
860,131	69,47
860,426	68,28
860,72	68,66
861,015	66,66
861,31	66,69
861,604	66,51
861,899	67,19
862,193	67,35
862,487	67,01
862,782	70,32
863,076	70,96
863,37	72
863,664	75,66
863,959	77,03
864,253	77,61
864,547	73,45
864,841	75,32
865,135	76,7
865,428	75,52
865,722	77,8
866,016	77,96
866,31	79,01
866,603	79,34
866,897	79,96
867,19	81,78
867,484	81,27
867,777	81,2
868,07	80,61
868,364	81,91
868,657	83,17
868,95	78,99
869,243	77,9
869,536	76,25
869,829	75,22
870,122	76,22
870,415	76,38
870,708	78,95
871	77,59
871,293	78,39
871,586	79,8
871,878	79,27
872,171	80,5
872,463	79,57
872,756	79,4
873,048	80,31
873,341	80,47
873,633	81,46
873,925	82,24
874,217	82,78
874,509	81,88
874,801	81,28
875,093	81,95
875,385	83,2
875,677	84,45
875,969	83,46
